0.0,1.0,0.2796435356140136
0.0,2.0,0.278656542301178
0.0,3.0,0.2787490487098694
0.0,4.0,0.2790650725364685
0.0,5.0,0.2785705029964447
0.0,6.0,0.2785409688949585
0.0,7.0,0.2786079943180084
0.0,8.0,0.2784759402275085
0.0,9.0,0.2784074246883392
0.0,10.0,0.2782425284385681
0.0,11.0,0.2782377302646637
0.0,12.0,0.2784491777420044
0.0,13.0,0.2782926857471466
0.0,14.0,0.2783072590827942
0.0,15.0,0.2777767777442932
0.0,16.0,0.2780190110206604
0.0,17.0,0.2778400480747223
0.0,18.0,0.2779334187507629
0.0,19.0,0.2779838740825653
0.0,20.0,0.277979701757431
0.0,21.0,0.2776584327220917
0.0,22.0,0.2780373990535736
0.0,23.0,0.2777968645095825
0.0,24.0,0.2776812016963959
0.0,25.0,0.2778012752532959
0.0,26.0,0.277928739786148
0.0,27.0,0.2773263454437256
0.0,28.0,0.277439683675766
0.0,29.0,0.2772672176361084
0.0,30.0,0.2770658433437347
0.0,31.0,0.27728933095932
0.0,32.0,0.2772932052612304
0.0,33.0,0.2772817015647888
0.0,34.0,0.2770001590251922
0.0,35.0,0.2769618928432464
0.0,36.0,0.2771819829940796
0.0,37.0,0.277274489402771
0.0,38.0,0.2767283618450165
0.0,39.0,0.2771777212619781
0.0,40.0,0.2767797410488128
0.0,41.0,0.2765097022056579
0.0,42.0,0.276650071144104
0.0,43.0,0.2768897414207458
0.0,44.0,0.2764583826065063
0.0,45.0,0.2765703499317169
0.0,46.0,0.2764148414134979
0.0,47.0,0.2764168977737427
0.0,48.0,0.2766408622264862
0.0,49.0,0.2762551307678222
0.0,50.0,0.2763424515724182
0.0,51.0,0.2763552963733673
0.0,52.0,0.2763500511646271
0.0,53.0,0.2761472761631012
0.0,54.0,0.2762027382850647
0.0,55.0,0.2760769724845886
0.0,56.0,0.2757539749145508
0.0,57.0,0.2756425142288208
0.0,58.0,0.2758581936359405
0.0,59.0,0.2757592499256134
0.0,60.0,0.2758733928203583
0.0,61.0,0.275860995054245
0.0,62.0,0.2758316695690155
0.0,63.0,0.2759457230567932
0.0,64.0,0.2759085893630981
0.0,65.0,0.2754856050014496
0.0,66.0,0.2755774855613708
0.0,67.0,0.2751258909702301
0.0,68.0,0.2750980257987976
0.0,69.0,0.2752607464790344
0.0,70.0,0.2751938700675964
0.0,71.0,0.2751489877700805
0.0,72.0,0.2751581966876983
0.0,73.0,0.2751748263835907
0.0,74.0,0.2753113508224487
0.0,75.0,0.2752823233604431
0.0,76.0,0.2749848067760467
0.0,77.0,0.2748584747314453
0.0,78.0,0.2748306393623352
0.0,79.0,0.2745157182216644
0.0,80.0,0.2746736109256744
0.0,81.0,0.274805873632431
0.0,82.0,0.2746882140636444
0.0,83.0,0.2745357751846313
0.0,84.0,0.2744595110416412
0.0,85.0,0.2744746804237366
0.0,86.0,0.2744755446910858
0.0,87.0,0.2744669318199157
0.0,88.0,0.2743218839168548
0.0,89.0,0.2742262184619903
0.0,90.0,0.2743685841560364
0.0,91.0,0.2742250263690948
0.0,92.0,0.2743747532367706
0.0,93.0,0.2743721604347229
0.0,94.0,0.2741018831729889
0.0,95.0,0.2739573419094085
0.0,96.0,0.2740581631660461
0.0,97.0,0.2744425535202026
0.0,98.0,0.273813247680664
0.0,99.0,0.273833692073822
0.0,100.0,0.2739536464214325
0.0,101.0,0.2732363939285278
0.0,102.0,0.2733134031295776
0.0,103.0,0.2734932899475097
0.0,104.0,0.2735468447208404
0.0,105.0,0.2736692428588867
0.0,106.0,0.2734086513519287
0.0,107.0,0.273667424917221
0.0,108.0,0.2734495103359222
0.0,109.0,0.2734621465206146
0.0,110.0,0.2733558714389801
0.0,111.0,0.2732280194759369
0.0,112.0,0.273271381855011
0.0,113.0,0.2731766700744629
0.0,114.0,0.2731271982192993
0.0,115.0,0.2731665372848511
0.0,116.0,0.272951066493988
0.0,117.0,0.2728347182273865
0.0,118.0,0.2726846933364868
0.0,119.0,0.27310711145401
0.0,120.0,0.2727479934692383
0.0,121.0,0.2726103067398071
0.0,122.0,0.2727657854557037
0.0,123.0,0.2728591561317444
0.0,124.0,0.2725911736488342
0.0,125.0,0.2728317975997925
0.0,126.0,0.2724665105342865
0.0,127.0,0.2723763287067413
0.0,128.0,0.2724204659461975
0.0,129.0,0.2725339829921722
0.0,130.0,0.2722100913524627
0.0,131.0,0.2723151743412018
0.0,132.0,0.2722015082836151
0.0,133.0,0.2721441388130188
0.0,134.0,0.2719504237174988
0.0,135.0,0.2721051573753357
0.0,136.0,0.2721003293991089
0.0,137.0,0.2717532515525818
0.0,138.0,0.2719733119010925
0.0,139.0,0.2717098295688629
0.0,140.0,0.2720190286636352
0.0,141.0,0.2719387710094452
0.0,142.0,0.2714711725711822
0.0,143.0,0.27149698138237
0.0,144.0,0.2714815735816955
0.0,145.0,0.2717672288417816
0.0,146.0,0.2715703845024109
0.0,147.0,0.2717117667198181
0.0,148.0,0.2713207602500915
0.0,149.0,0.271245539188385
0.0,150.0,0.2710977494716644
0.0,151.0,0.2711831033229828
0.0,152.0,0.2711108028888702
0.0,153.0,0.2710006237030029
0.0,154.0,0.2709915339946747
0.0,155.0,0.2710249423980713
0.0,156.0,0.2708360850811004
0.0,157.0,0.2710493505001068
0.0,158.0,0.2708405554294586
0.0,159.0,0.2707523703575134
0.0,160.0,0.2706066966056824
0.0,161.0,0.2707948088645935
0.0,162.0,0.2705667614936828
0.0,163.0,0.2708709836006164
0.0,164.0,0.2703917324542999
0.0,165.0,0.2705435156822204
0.0,166.0,0.2704739868640899
0.0,167.0,0.2703498005867004
0.0,168.0,0.2703195810317993
0.0,169.0,0.270359992980957
0.0,170.0,0.2703203558921814
0.0,171.0,0.2702779173851013
0.0,172.0,0.2700355947017669
0.0,173.0,0.2703408896923065
0.0,174.0,0.2699968814849853
0.0,175.0,0.269864559173584
0.0,176.0,0.270092636346817
0.0,177.0,0.2700375318527221
0.0,178.0,0.2698853313922882
0.0,179.0,0.2697363495826721
0.0,180.0,0.2696198225021362
0.0,181.0,0.2698931992053985
0.0,182.0,0.2696841657161712
0.0,183.0,0.2695590257644653
0.0,184.0,0.2698878049850464
0.0,185.0,0.2695217430591583
0.0,186.0,0.2693282067775726
0.0,187.0,0.2693386077880859
0.0,188.0,0.2692518830299377
0.0,189.0,0.2694487571716308
0.0,190.0,0.2690677940845489
0.0,191.0,0.2691646218299866
0.0,192.0,0.269173115491867
0.0,193.0,0.2690796256065368
0.0,194.0,0.2690391540527344
0.0,195.0,0.2692798674106598
0.0,196.0,0.2690615057945251
0.0,197.0,0.2687241435050964
0.0,198.0,0.2685483694076538
0.0,199.0,0.2688423693180084
0.0,200.0,0.2689499855041504
0.0,201.0,0.2687325477600097
0.0,202.0,0.2684902846813202
0.0,203.0,0.2687528133392334
0.0,204.0,0.2684968709945678
0.0,205.0,0.2685639560222626
0.0,206.0,0.2685868740081787
0.0,207.0,0.2685450911521911
0.0,208.0,0.268241673707962
0.0,209.0,0.2680977582931518
0.0,210.0,0.2682470083236694
0.0,211.0,0.2681063711643219
0.0,212.0,0.2683887779712677
0.0,213.0,0.2683686316013336
0.0,214.0,0.2677815854549408
0.0,215.0,0.2677506804466247
0.0,216.0,0.2677690982818603
0.0,217.0,0.2680750489234924
0.0,218.0,0.2674709856510162
0.0,219.0,0.2678585350513458
0.0,220.0,0.2675683796405792
0.0,221.0,0.2675566375255584
0.0,222.0,0.2673673331737518
0.0,223.0,0.26747727394104
0.0,224.0,0.2675599753856659
0.0,225.0,0.2672275304794311
0.0,226.0,0.2673554718494415
0.0,227.0,0.2671344876289367
0.0,228.0,0.267387717962265
0.0,229.0,0.2672236561775207
0.0,230.0,0.2671876549720764
0.0,231.0,0.2668666243553161
0.0,232.0,0.2665252089500427
0.0,233.0,0.2666800618171692
0.0,234.0,0.266649454832077
0.0,235.0,0.2669946253299713
0.0,236.0,0.2666622698307037
0.0,237.0,0.2671214938163757
0.0,238.0,0.2664157450199127
0.0,239.0,0.2668261229991913
0.0,240.0,0.2664157748222351
0.0,241.0,0.2664941549301147
0.0,242.0,0.2666470110416412
0.0,243.0,0.2668365240097046
0.0,244.0,0.2663388252258301
0.0,245.0,0.2665822207927704
0.0,246.0,0.2663188278675079
0.0,247.0,0.2663338482379913
0.0,248.0,0.2663039267063141
0.0,249.0,0.2663124799728393
0.0,250.0,0.2661257684230804
0.0,251.0,0.2659446001052856
0.0,252.0,0.2661713659763336
0.0,253.0,0.2658921480178833
0.0,254.0,0.2658349275588989
0.0,255.0,0.2661677598953247
0.0,256.0,0.2657250761985779
0.0,257.0,0.26568204164505
0.0,258.0,0.2654467225074768
0.0,259.0,0.2654814422130584
0.0,260.0,0.2654314339160919
0.0,261.0,0.26557657122612
0.0,262.0,0.2653103172779083
0.0,263.0,0.2654509842395782
0.0,264.0,0.2653276324272156
0.0,265.0,0.2653644680976867
0.0,266.0,0.2649234533309936
0.0,267.0,0.2649514377117157
0.0,268.0,0.2653228044509887
0.0,269.0,0.2649878859519958
0.0,270.0,0.2651676833629608
0.0,271.0,0.2649153470993042
0.0,272.0,0.2646581530570984
0.0,273.0,0.2646898925304413
0.0,274.0,0.2645486891269684
0.0,275.0,0.2647427022457123
0.0,276.0,0.2648901343345642
0.0,277.0,0.2646718323230743
0.0,278.0,0.2645834684371948
0.0,279.0,0.2645567059516907
0.0,280.0,0.2644366025924682
0.0,281.0,0.2644732296466827
0.0,282.0,0.2642301917076111
0.0,283.0,0.2639596462249756
0.0,284.0,0.2643689811229706
0.0,285.0,0.2643503248691559
0.0,286.0,0.2643076479434967
0.0,287.0,0.2638570964336395
0.0,288.0,0.2637626230716705
0.0,289.0,0.2636226713657379
0.0,290.0,0.2641299068927765
0.0,291.0,0.264091283082962
0.0,292.0,0.263734757900238
0.0,293.0,0.2634727656841278
0.0,294.0,0.2637582123279571
0.0,295.0,0.2638541758060455
0.0,296.0,0.26373291015625
0.0,297.0,0.2634390592575073
0.0,298.0,0.2634681761264801
0.0,299.0,0.263757973909378
0.0,300.0,0.2633696496486664
0.0,301.0,0.2635253965854645
0.0,302.0,0.2631141245365143
0.0,303.0,0.2633430063724518
0.0,304.0,0.2631593942642212
0.0,305.0,0.263632595539093
0.0,306.0,0.2629096508026123
0.0,307.0,0.2628785371780395
0.0,308.0,0.2628715634346008
0.0,309.0,0.262806236743927
0.0,310.0,0.2630609273910522
0.0,311.0,0.2628547847270965
0.0,312.0,0.2627515196800232
0.0,313.0,0.2624945640563965
0.0,314.0,0.262599766254425
0.0,315.0,0.262595534324646
0.0,316.0,0.2625248730182647
0.0,317.0,0.262519359588623
0.0,318.0,0.2622450888156891
0.0,319.0,0.262584239244461
0.0,320.0,0.26215460896492
0.0,321.0,0.2626133561134338
0.0,322.0,0.2621954083442688
0.0,323.0,0.2619084417819977
0.0,324.0,0.262311041355133
0.0,325.0,0.2618454396724701
0.0,326.0,0.2620240151882171
0.0,327.0,0.2620406746864319
0.0,328.0,0.2617846429347992
0.0,329.0,0.261678546667099
0.0,330.0,0.2611792981624603
0.0,331.0,0.261476069688797
0.0,332.0,0.2612921297550201
0.0,333.0,0.2615262269973755
0.0,334.0,0.2613589465618133
0.0,335.0,0.2614606618881225
0.0,336.0,0.2617198228836059
0.0,337.0,0.2615801990032196
0.0,338.0,0.2610113322734833
0.0,339.0,0.2611221075057983
0.0,340.0,0.2614699304103851
0.0,341.0,0.2610873878002167
0.0,342.0,0.2608539760112762
0.0,343.0,0.2606397271156311
0.0,344.0,0.261041909456253
0.0,345.0,0.2606197297573089
0.0,346.0,0.2607905566692352
0.0,347.0,0.2608113586902618
0.0,348.0,0.2608526647090912
0.0,349.0,0.2606923282146454
0.0,350.0,0.2604239881038666
0.0,351.0,0.2603497505187988
0.0,352.0,0.2601557970046997
0.0,353.0,0.2602182924747467
0.0,354.0,0.2603382766246795
0.0,355.0,0.2604129612445831
0.0,356.0,0.2603517770767212
0.0,357.0,0.2599370181560516
0.0,358.0,0.2603954374790191
0.0,359.0,0.2599977552890777
0.0,360.0,0.2599354386329651
0.0,361.0,0.2594932317733764
0.0,362.0,0.2597675919532776
0.0,363.0,0.25954470038414
0.0,364.0,0.2596890330314636
0.0,365.0,0.2597064077854156
0.0,366.0,0.2597747147083282
0.0,367.0,0.2592859864234924
0.0,368.0,0.2592287361621856
0.0,369.0,0.2590966820716858
0.0,370.0,0.2593680322170257
0.0,371.0,0.2592131197452545
0.0,372.0,0.2593470811843872
0.0,373.0,0.2591968774795532
0.0,374.0,0.2589879930019378
0.0,375.0,0.258931964635849
0.0,376.0,0.2590321004390716
0.0,377.0,0.2589027285575866
0.0,378.0,0.2586693167686462
0.0,379.0,0.2589501440525055
0.0,380.0,0.2587136030197143
0.0,381.0,0.2585532665252685
0.0,382.0,0.2587920725345611
0.0,383.0,0.2588241100311279
0.0,384.0,0.2587967813014984
0.0,385.0,0.2583705484867096
0.0,386.0,0.2584594190120697
0.0,387.0,0.2585377693176269
0.0,388.0,0.258217453956604
0.0,389.0,0.2583162486553192
0.0,390.0,0.2581718266010284
0.0,391.0,0.2581419050693512
0.0,392.0,0.258034884929657
0.0,393.0,0.258063793182373
0.0,394.0,0.258205235004425
0.0,395.0,0.2580767869949341
0.0,396.0,0.2578146159648895
0.0,397.0,0.2576311230659485
0.0,398.0,0.2576188743114471
0.0,399.0,0.2577144503593445
0.0,400.0,0.2577559649944305
0.0,401.0,0.2576773166656494
0.0,402.0,0.2578917741775512
0.0,403.0,0.2576552629470825
0.0,404.0,0.2572435140609741
0.0,405.0,0.2572972774505615
0.0,406.0,0.2571611702442169
0.0,407.0,0.2570594251155853
0.0,408.0,0.2571660578250885
0.0,409.0,0.2571457624435425
0.0,410.0,0.257012665271759
0.0,411.0,0.2571146190166473
0.0,412.0,0.2571463286876678
0.0,413.0,0.256718635559082
0.0,414.0,0.2568128407001495
0.0,415.0,0.2566847205162048
0.0,416.0,0.2563201487064361
0.0,417.0,0.2565202713012695
0.0,418.0,0.2565175294876098
0.0,419.0,0.2565234005451202
0.0,420.0,0.2560817003250122
0.0,421.0,0.2558617889881134
0.0,422.0,0.2566375434398651
0.0,423.0,0.2562471032142639
0.0,424.0,0.256360650062561
0.0,425.0,0.2560881674289703
0.0,426.0,0.2562819719314575
0.0,427.0,0.2557587325572967
0.0,428.0,0.2561891078948974
0.0,429.0,0.2555835843086242
0.0,430.0,0.2558095455169678
0.0,431.0,0.255777895450592
0.0,432.0,0.2558142840862274
0.0,433.0,0.2560181319713592
0.0,434.0,0.2557327449321747
0.0,435.0,0.2555940449237823
0.0,436.0,0.2558794617652893
0.0,437.0,0.2553534805774688
0.0,438.0,0.2555452585220337
0.0,439.0,0.255200445652008
0.0,440.0,0.2552827000617981
0.0,441.0,0.2552374005317688
0.0,442.0,0.2547739446163177
0.0,443.0,0.2552443146705627
0.0,444.0,0.2551525235176086
0.0,445.0,0.2548044621944427
0.0,446.0,0.2547850310802459
0.0,447.0,0.2547293603420257
0.0,448.0,0.2543797492980957
0.0,449.0,0.2546844482421875
0.0,450.0,0.2543457150459289
0.0,451.0,0.2542899847030639
0.0,452.0,0.254010260105133
0.0,453.0,0.2540645599365234
0.0,454.0,0.254284918308258
0.0,455.0,0.2543983161449432
0.0,456.0,0.2541371583938598
0.0,457.0,0.2541606724262237
0.0,458.0,0.2542719841003418
0.0,459.0,0.2540892362594604
0.0,460.0,0.2538574635982513
0.0,461.0,0.2532546818256378
0.0,462.0,0.253687709569931
0.0,463.0,0.2533786296844482
0.0,464.0,0.2535300850868225
0.0,465.0,0.2537012696266174
0.0,466.0,0.2539056837558746
0.0,467.0,0.2538484334945678
0.0,468.0,0.2533410191535949
0.0,469.0,0.2527801692485809
0.0,470.0,0.2532338201999664
0.0,471.0,0.2534701526165008
0.0,472.0,0.252843976020813
0.0,473.0,0.2533040642738342
0.0,474.0,0.2532017529010772
0.0,475.0,0.2531364262104034
0.0,476.0,0.2526746094226837
0.0,477.0,0.2529154121875763
0.0,478.0,0.2528490424156189
0.0,479.0,0.2526149749755859
0.0,480.0,0.2527482509613037
0.0,481.0,0.2525365650653839
0.0,482.0,0.2529132962226867
0.0,483.0,0.2524496614933014
0.0,484.0,0.2520152926445007
0.0,485.0,0.2524262368679046
0.0,486.0,0.2524145245552063
0.0,487.0,0.2522615790367126
0.0,488.0,0.2521890103816986
0.0,489.0,0.2522983253002167
0.0,490.0,0.2523000538349151
0.0,491.0,0.2519848346710205
0.0,492.0,0.2522477209568023
0.0,493.0,0.2517865300178528
0.0,494.0,0.2515576183795929
0.0,495.0,0.2515486478805542
0.0,496.0,0.2517267167568207
0.0,497.0,0.2513443231582641
0.0,498.0,0.2511857151985168
0.0,499.0,0.2512668669223785
0.0,500.0,0.2515002191066742
0.0,501.0,0.2517057359218597
0.0,502.0,0.2510829269886017
0.0,503.0,0.2510144114494324
0.0,504.0,0.2510527074337005
0.0,505.0,0.2509865462779999
0.0,506.0,0.2512446939945221
0.0,507.0,0.2509517967700958
0.0,508.0,0.2507470548152923
0.0,509.0,0.2507019639015198
0.0,510.0,0.2504763305187225
0.0,511.0,0.2504557967185974
0.0,512.0,0.2506950795650482
0.0,513.0,0.250636339187622
0.0,514.0,0.250297486782074
0.0,515.0,0.2501614391803741
0.0,516.0,0.2506394684314728
0.0,517.0,0.249811440706253
0.0,518.0,0.2497391700744629
0.0,519.0,0.2497655749320984
0.0,520.0,0.2498179376125335
0.0,521.0,0.250060498714447
0.0,522.0,0.2498403489589691
0.0,523.0,0.2498778402805328
0.0,524.0,0.2497391700744629
0.0,525.0,0.2496522367000579
0.0,526.0,0.2495331466197967
0.0,527.0,0.2493673861026764
0.0,528.0,0.2492078691720962
0.0,529.0,0.2493867725133896
0.0,530.0,0.2493662387132644
0.0,531.0,0.2496794164180755
0.0,532.0,0.2492099404335022
0.0,533.0,0.2494743317365646
0.0,534.0,0.2489190250635147
0.0,535.0,0.2488124966621399
0.0,536.0,0.2488339841365814
0.0,537.0,0.24898262321949
0.0,538.0,0.248321071267128
0.0,539.0,0.2490307688713073
0.0,540.0,0.2488696128129959
0.0,541.0,0.2488564401865005
0.0,542.0,0.2484892010688781
0.0,543.0,0.2485135644674301
0.0,544.0,0.2481518983840942
0.0,545.0,0.2484540790319442
0.0,546.0,0.2480728775262832
0.0,547.0,0.2481411248445511
0.0,548.0,0.2479225993156433
0.0,549.0,0.248247817158699
0.0,550.0,0.2476610988378524
0.0,551.0,0.2480947524309158
0.0,552.0,0.2476686388254165
0.0,553.0,0.247463196516037
0.0,554.0,0.2475135326385498
0.0,555.0,0.2473306655883789
0.0,556.0,0.2479064166545868
0.0,557.0,0.2475993037223816
0.0,558.0,0.2473448067903518
0.0,559.0,0.2476500570774078
0.0,560.0,0.2467044591903686
0.0,561.0,0.2475175559520721
0.0,562.0,0.247566357254982
0.0,563.0,0.2473334521055221
0.0,564.0,0.2468203455209732
0.0,565.0,0.2470156252384185
0.0,566.0,0.2474046945571899
0.0,567.0,0.2470167726278305
0.0,568.0,0.2468860000371933
0.0,569.0,0.2464036792516708
0.0,570.0,0.2468271702528
0.0,571.0,0.2463741600513458
0.0,572.0,0.2465313076972961
0.0,573.0,0.2465714067220688
0.0,574.0,0.2464976906776428
0.0,575.0,0.2467075288295745
0.0,576.0,0.2468036562204361
0.0,577.0,0.2458977401256561
0.0,578.0,0.2462913244962692
0.0,579.0,0.2460984885692596
0.0,580.0,0.2460864931344986
0.0,581.0,0.2457166612148285
0.0,582.0,0.2457510083913803
0.0,583.0,0.2453629821538925
0.0,584.0,0.2456076443195343
0.0,585.0,0.2453740239143371
0.0,586.0,0.2457315325736999
0.0,587.0,0.245632529258728
0.0,588.0,0.2454091757535934
0.0,589.0,0.245134174823761
0.0,590.0,0.2446668595075607
0.0,591.0,0.2449123859405517
0.0,592.0,0.2447762042284011
0.0,593.0,0.2447462677955627
0.0,594.0,0.2453354299068451
0.0,595.0,0.244849219918251
0.0,596.0,0.2448692470788955
0.0,597.0,0.2441346049308776
0.0,598.0,0.2444561421871185
0.0,599.0,0.2441724389791488
0.0,600.0,0.2441116422414779
0.0,601.0,0.2445450276136398
0.0,602.0,0.244566798210144
0.0,603.0,0.243897795677185
0.0,604.0,0.2441391795873642
0.0,605.0,0.2441771179437637
0.0,606.0,0.2438596040010452
0.0,607.0,0.2438996583223343
0.0,608.0,0.2434364110231399
0.0,609.0,0.2437536567449569
0.0,610.0,0.2439911812543869
0.0,611.0,0.2437097430229187
0.0,612.0,0.2436417341232299
0.0,613.0,0.2433454841375351
0.0,614.0,0.2434727400541305
0.0,615.0,0.2436854988336563
0.0,616.0,0.2434232681989669
0.0,617.0,0.243357315659523
0.0,618.0,0.2432661801576614
0.0,619.0,0.2434830963611602
0.0,620.0,0.2428748309612274
0.0,621.0,0.2428061068058014
0.0,622.0,0.2425120770931244
0.0,623.0,0.2430735528469085
0.0,624.0,0.2437465190887451
0.0,625.0,0.2427506148815155
0.0,626.0,0.2423949241638183
0.0,627.0,0.2421844005584716
0.0,628.0,0.242554485797882
0.0,629.0,0.2425515353679657
0.0,630.0,0.242596760392189
0.0,631.0,0.242849051952362
0.0,632.0,0.2420633882284164
0.0,633.0,0.2422925233840942
0.0,634.0,0.2421031296253204
0.0,635.0,0.2417962402105331
0.0,636.0,0.2422185242176056
0.0,637.0,0.241872489452362
0.0,638.0,0.2418470382690429
0.0,639.0,0.2417921274900436
0.0,640.0,0.2420582920312881
0.0,641.0,0.2410988062620163
0.0,642.0,0.2412930279970169
0.0,643.0,0.2415958195924759
0.0,644.0,0.2415864616632461
0.0,645.0,0.2410576939582824
0.0,646.0,0.2412623912096023
0.0,647.0,0.241410881280899
0.0,648.0,0.2414170801639557
0.0,649.0,0.2412338703870773
0.0,650.0,0.2411134988069534
0.0,651.0,0.2408474385738372
0.0,652.0,0.2411374449729919
0.0,653.0,0.2410373389720916
0.0,654.0,0.2402934432029724
0.0,655.0,0.2408327609300613
0.0,656.0,0.2407113909721374
0.0,657.0,0.240501120686531
0.0,658.0,0.2400744706392288
0.0,659.0,0.2403115779161453
0.0,660.0,0.2400003373622894
0.0,661.0,0.23981574177742
0.0,662.0,0.2405072003602981
0.0,663.0,0.2398636788129806
0.0,664.0,0.2400869131088256
0.0,665.0,0.2398382872343063
0.0,666.0,0.2401348799467086
0.0,667.0,0.2392482757568359
0.0,668.0,0.2399220913648605
0.0,669.0,0.2400951385498047
0.0,670.0,0.2396637350320816
0.0,671.0,0.2395287454128265
0.0,672.0,0.2395302504301071
0.0,673.0,0.2390479892492294
0.0,674.0,0.2393504977226257
0.0,675.0,0.2393767237663269
0.0,676.0,0.2389097660779953
0.0,677.0,0.2386396825313568
0.0,678.0,0.2393255531787872
0.0,679.0,0.2384866625070572
0.0,680.0,0.2386299073696136
0.0,681.0,0.2384103834629058
0.0,682.0,0.2387534528970718
0.0,683.0,0.2388421893119812
0.0,684.0,0.2383714318275451
0.0,685.0,0.2386645674705505
0.0,686.0,0.2386622279882431
0.0,687.0,0.2379469275474548
0.0,688.0,0.238551065325737
0.0,689.0,0.2384168803691864
0.0,690.0,0.2379233241081237
0.0,691.0,0.2382736057043075
0.0,692.0,0.2378741055727005
0.0,693.0,0.2376327514648437
0.0,694.0,0.2377910166978836
0.0,695.0,0.238318383693695
0.0,696.0,0.2378976792097091
0.0,697.0,0.2373277097940445
0.0,698.0,0.2377412915229797
0.0,699.0,0.2374164015054702
0.0,700.0,0.237556591629982
0.0,701.0,0.237313225865364
0.0,702.0,0.2372099310159683
0.0,703.0,0.2368850708007812
0.0,704.0,0.2376110255718231
0.0,705.0,0.2367297112941742
0.0,706.0,0.2371884286403656
0.0,707.0,0.2372391819953918
0.0,708.0,0.2364300489425659
0.0,709.0,0.23667673766613
0.0,710.0,0.2366264164447784
0.0,711.0,0.2365238517522812
0.0,712.0,0.2366246730089187
0.0,713.0,0.2371243089437484
0.0,714.0,0.236663669347763
0.0,715.0,0.2368871718645095
0.0,716.0,0.2362914085388183
0.0,717.0,0.2361563295125961
0.0,718.0,0.2354374974966049
0.0,719.0,0.2359257042407989
0.0,720.0,0.2360748052597046
0.0,721.0,0.236098825931549
0.0,722.0,0.2360522001981735
0.0,723.0,0.235810324549675
0.0,724.0,0.23570217192173
0.0,725.0,0.2358002811670303
0.0,726.0,0.2357078939676284
0.0,727.0,0.2352320253849029
0.0,728.0,0.2352254688739776
0.0,729.0,0.2350175529718399
0.0,730.0,0.2357956171035766
0.0,731.0,0.2349352985620498
0.0,732.0,0.2349791526794433
0.0,733.0,0.2350140362977981
0.0,734.0,0.2348964810371399
0.0,735.0,0.2346165180206298
0.0,736.0,0.2348400354385376
0.0,737.0,0.2345064133405685
0.0,738.0,0.2346217334270477
0.0,739.0,0.2344652414321899
0.0,740.0,0.2348145097494125
0.0,741.0,0.2344145625829696
0.0,742.0,0.2343965917825698
0.0,743.0,0.2342992126941681
0.0,744.0,0.2341173589229583
0.0,745.0,0.2344246357679367
0.0,746.0,0.2338845133781433
0.0,747.0,0.2342734336853027
0.0,748.0,0.2344041615724563
0.0,749.0,0.2341580390930175
0.0,750.0,0.2338331490755081
0.0,751.0,0.2343943119049072
0.0,752.0,0.2337264865636825
0.0,753.0,0.2336915731430053
0.0,754.0,0.2334144562482834
0.0,755.0,0.234063446521759
0.0,756.0,0.2334422469139099
0.0,757.0,0.2332785129547119
0.0,758.0,0.2333912998437881
0.0,759.0,0.2332048565149307
0.0,760.0,0.2331658452749252
0.0,761.0,0.2335536777973175
0.0,762.0,0.2327193617820739
0.0,763.0,0.2330538183450698
0.0,764.0,0.2331967800855636
0.0,765.0,0.2328321486711502
0.0,766.0,0.2324706763029098
0.0,767.0,0.2328085899353027
0.0,768.0,0.2322830706834793
0.0,769.0,0.2323452681303024
0.0,770.0,0.2326008826494217
0.0,771.0,0.2322443723678589
0.0,772.0,0.2321271449327469
0.0,773.0,0.2321911007165908
0.0,774.0,0.232180967926979
0.0,775.0,0.2322147488594055
0.0,776.0,0.2324561923742294
0.0,777.0,0.2322023212909698
0.0,778.0,0.2323261797428131
0.0,779.0,0.2316097766160965
0.0,780.0,0.2321522086858749
0.0,781.0,0.2316875010728836
0.0,782.0,0.2323594540357589
0.0,783.0,0.2321809530258178
0.0,784.0,0.2313760071992874
0.0,785.0,0.2316308319568634
0.0,786.0,0.2318140417337417
0.0,787.0,0.231193795800209
0.0,788.0,0.2315643727779388
0.0,789.0,0.23128142952919
0.0,790.0,0.2312456965446472
0.0,791.0,0.2312572449445724
0.0,792.0,0.2310278713703155
0.0,793.0,0.2309563755989074
0.0,794.0,0.230113536119461
0.0,795.0,0.2311345636844635
0.0,796.0,0.2306632846593856
0.0,797.0,0.2304047644138336
0.0,798.0,0.2308637499809265
0.0,799.0,0.2308923006057739
0.0,800.0,0.2307011187076568
0.0,801.0,0.2305185496807098
0.0,802.0,0.2302944064140319
0.0,803.0,0.2302331626415252
0.0,804.0,0.2300623804330825
0.0,805.0,0.2298038452863693
0.0,806.0,0.2302469462156295
0.0,807.0,0.2301672101020813
0.0,808.0,0.2301098704338073
0.0,809.0,0.2299643158912658
0.0,810.0,0.229631021618843
0.0,811.0,0.2297750860452652
0.0,812.0,0.2298164069652557
0.0,813.0,0.2294944375753402
0.0,814.0,0.2297870814800262
0.0,815.0,0.2297320216894149
0.0,816.0,0.2295622527599334
0.0,817.0,0.2294427156448364
0.0,818.0,0.2291442453861236
0.0,819.0,0.2293204814195633
0.0,820.0,0.2290177792310714
0.0,821.0,0.2287016361951828
0.0,822.0,0.2293460667133331
0.0,823.0,0.2285645306110382
0.0,824.0,0.2285707294940948
0.0,825.0,0.2289209067821502
0.0,826.0,0.2284162044525146
0.0,827.0,0.2286950349807739
0.0,828.0,0.2282290756702423
0.0,829.0,0.2280690819025039
0.0,830.0,0.2281921356916427
0.0,831.0,0.2282258123159408
0.0,832.0,0.2281131893396377
0.0,833.0,0.2283227890729904
0.0,834.0,0.2283199727535247
0.0,835.0,0.2283235937356948
0.0,836.0,0.2278802692890167
0.0,837.0,0.2278053015470504
0.0,838.0,0.2279707938432693
0.0,839.0,0.2278335690498352
0.0,840.0,0.2282541096210479
0.0,841.0,0.2277168482542038
0.0,842.0,0.2275220155715942
0.0,843.0,0.2273856848478317
0.0,844.0,0.2272782325744629
0.0,845.0,0.2273947894573211
0.0,846.0,0.2273029237985611
0.0,847.0,0.2275983542203903
0.0,848.0,0.2270837575197219
0.0,849.0,0.226740688085556
0.0,850.0,0.2271967977285385
0.0,851.0,0.2268024533987045
0.0,852.0,0.2272118479013443
0.0,853.0,0.2266108840703964
0.0,854.0,0.2266317456960678
0.0,855.0,0.2268028259277343
0.0,856.0,0.2268193662166595
0.0,857.0,0.2266783714294433
0.0,858.0,0.2268525958061218
0.0,859.0,0.2260272055864334
0.0,860.0,0.2263174355030059
0.0,861.0,0.2262712270021438
0.0,862.0,0.2259150743484497
0.0,863.0,0.2260985523462295
0.0,864.0,0.2257747799158096
0.0,865.0,0.226118117570877
0.0,866.0,0.2263903468847274
0.0,867.0,0.2259085327386856
0.0,868.0,0.2258374392986297
0.0,869.0,0.2256051301956176
0.0,870.0,0.2259454280138015
0.0,871.0,0.2258708178997039
0.0,872.0,0.2256070077419281
0.0,873.0,0.2256859987974167
0.0,874.0,0.2254449278116226
0.0,875.0,0.225292682647705
0.0,876.0,0.2251155525445938
0.0,877.0,0.2250695377588272
0.0,878.0,0.2251316905021667
0.0,879.0,0.2251861542463302
0.0,880.0,0.2250630557537078
0.0,881.0,0.2249099910259246
0.0,882.0,0.2252407968044281
0.0,883.0,0.2246762365102768
0.0,884.0,0.2250664830207824
0.0,885.0,0.2245242446660995
0.0,886.0,0.2246417850255966
0.0,887.0,0.2246302813291549
0.0,888.0,0.2246576100587844
0.0,889.0,0.224353551864624
0.0,890.0,0.2242002785205841
0.0,891.0,0.2244631648063659
0.0,892.0,0.2243185341358184
0.0,893.0,0.2242243587970733
0.0,894.0,0.2241069972515106
0.0,895.0,0.2236432135105133
0.0,896.0,0.2237605601549148
0.0,897.0,0.2238356173038482
0.0,898.0,0.2234653830528259
0.0,899.0,0.22355517745018
0.0,900.0,0.2238307297229766
0.0,901.0,0.2234103977680206
0.0,902.0,0.2234763950109481
0.0,903.0,0.2233904302120208
0.0,904.0,0.2234715968370437
0.0,905.0,0.223373994231224
0.0,906.0,0.2234941273927688
0.0,907.0,0.222756415605545
0.0,908.0,0.2233598977327346
0.0,909.0,0.2227751910686493
0.0,910.0,0.2227738499641418
0.0,911.0,0.2229240536689758
0.0,912.0,0.2226739674806594
0.0,913.0,0.2224757969379425
0.0,914.0,0.2226198017597198
0.0,915.0,0.2221381366252899
0.0,916.0,0.2226603031158447
0.0,917.0,0.2224107682704925
0.0,918.0,0.2223751097917556
0.0,919.0,0.2223616689443588
0.0,920.0,0.2223419696092605
0.0,921.0,0.222388818860054
0.0,922.0,0.2221539765596389
0.0,923.0,0.222174733877182
0.0,924.0,0.2219977378845214
0.0,925.0,0.2217249125242233
0.0,926.0,0.2215762883424759
0.0,927.0,0.2218687236309051
0.0,928.0,0.2217627167701721
0.0,929.0,0.2216499000787735
0.0,930.0,0.2217354625463485
0.0,931.0,0.2214593738317489
0.0,932.0,0.2214192450046539
0.0,933.0,0.2216653823852539
0.0,934.0,0.2209823876619339
0.0,935.0,0.221108466386795
0.0,936.0,0.221111923456192
0.0,937.0,0.2206191420555114
0.0,938.0,0.2212298512458801
0.0,939.0,0.221243530511856
0.0,940.0,0.2209624946117401
0.0,941.0,0.2205553501844406
0.0,942.0,0.2207752019166946
0.0,943.0,0.2206977903842926
0.0,944.0,0.2200615406036377
0.0,945.0,0.2203073650598526
0.0,946.0,0.2200599759817123
0.0,947.0,0.220472902059555
0.0,948.0,0.2202964276075363
0.0,949.0,0.2203381061553955
0.0,950.0,0.2201168537139892
0.0,951.0,0.2198318988084793
0.0,952.0,0.2197467982769012
0.0,953.0,0.2199170440435409
0.0,954.0,0.2198785841464996
0.0,955.0,0.219895452260971
0.0,956.0,0.2199714034795761
0.0,957.0,0.2192869484424591
0.0,958.0,0.2194690555334091
0.0,959.0,0.2198792994022369
0.0,960.0,0.2192657887935638
0.0,961.0,0.219412550330162
0.0,962.0,0.2191360741853714
0.0,963.0,0.2194305211305618
0.0,964.0,0.218852236866951
0.0,965.0,0.2195379137992859
0.0,966.0,0.2192855179309845
0.0,967.0,0.218959629535675
0.0,968.0,0.2188609540462494
0.0,969.0,0.2189010679721832
0.0,970.0,0.2185395061969757
0.0,971.0,0.2187335938215255
0.0,972.0,0.2186408191919326
0.0,973.0,0.2183263748884201
0.0,974.0,0.2185754626989364
0.0,975.0,0.2181572169065475
0.0,976.0,0.2180673629045486
0.0,977.0,0.2179222255945205
0.0,978.0,0.218338280916214
0.0,979.0,0.2181490659713745
0.0,980.0,0.2181230783462524
0.0,981.0,0.2175874710083007
0.0,982.0,0.2176217883825302
0.0,983.0,0.2179047018289566
0.0,984.0,0.217819258570671
0.0,985.0,0.2176111489534378
0.0,986.0,0.2170436978340149
0.0,987.0,0.2172847092151641
0.0,988.0,0.2173549979925155
0.0,989.0,0.2174293845891952
0.0,990.0,0.2169650644063949
0.0,991.0,0.2169288396835327
0.0,992.0,0.2173423022031784
0.0,993.0,0.2170443832874298
0.0,994.0,0.2168000340461731
0.0,995.0,0.2166981697082519
0.0,996.0,0.2168830931186676
0.0,997.0,0.216614693403244
0.0,998.0,0.2167598456144333
0.0,999.0,0.2166896164417266
0.0,1000.0,0.2166444212198257
0.0,1001.0,0.2162670791149139
0.0,1002.0,0.2167031317949295
0.0,1003.0,0.2164061963558197
0.0,1004.0,0.216189369559288
0.0,1005.0,0.2162600457668304
0.0,1006.0,0.2159385681152343
0.0,1007.0,0.2158478200435638
0.0,1008.0,0.2162413895130157
0.0,1009.0,0.2159671038389206
0.0,1010.0,0.2159796357154846
0.0,1011.0,0.2159209847450256
0.0,1012.0,0.2152527421712875
0.0,1013.0,0.215701550245285
0.0,1014.0,0.2154883444309234
0.0,1015.0,0.2154407650232315
0.0,1016.0,0.2154860198497772
0.0,1017.0,0.2154350876808166
0.0,1018.0,0.2152989357709884
0.0,1019.0,0.2151700109243393
0.0,1020.0,0.2148070633411407
0.0,1021.0,0.2151783555746078
0.0,1022.0,0.2152229100465774
0.0,1023.0,0.2148456573486328
0.0,1024.0,0.214956134557724
0.0,1025.0,0.2149640619754791
0.0,1026.0,0.2147408723831176
0.0,1027.0,0.2147061675786972
0.0,1028.0,0.2144832462072372
0.0,1029.0,0.2146473824977874
0.0,1030.0,0.2143726497888565
0.0,1031.0,0.2136544436216354
0.0,1032.0,0.2142755538225174
0.0,1033.0,0.2140009105205536
0.0,1034.0,0.2139147818088531
0.0,1035.0,0.213991180062294
0.0,1036.0,0.2135392427444458
0.0,1037.0,0.2138082385063171
0.0,1038.0,0.2135705351829528
0.0,1039.0,0.2137938439846038
0.0,1040.0,0.2133062481880188
0.0,1041.0,0.2135262936353683
0.0,1042.0,0.2134270668029785
0.0,1043.0,0.2133379429578781
0.0,1044.0,0.2131663262844085
0.0,1045.0,0.2132276892662048
0.0,1046.0,0.2131190150976181
0.0,1047.0,0.2131787687540054
0.0,1048.0,0.2129552215337753
0.0,1049.0,0.2131215333938598
0.0,1050.0,0.2130870521068573
0.0,1051.0,0.2128151953220367
0.0,1052.0,0.2128629982471466
0.0,1053.0,0.212612897157669
0.0,1054.0,0.2124351561069488
0.0,1055.0,0.2126829624176025
0.0,1056.0,0.2123529314994812
0.0,1057.0,0.2120234072208404
0.0,1058.0,0.2124506086111068
0.0,1059.0,0.2121516466140747
0.0,1060.0,0.211887925863266
0.0,1061.0,0.2120940536260604
0.0,1062.0,0.2120104283094406
0.0,1063.0,0.2118510007858276
0.0,1064.0,0.211689680814743
0.0,1065.0,0.2115532606840133
0.0,1066.0,0.2116802036762237
0.0,1067.0,0.211493507027626
0.0,1068.0,0.212027296423912
0.0,1069.0,0.2112861573696136
0.0,1070.0,0.2108047157526016
0.0,1071.0,0.2111901491880417
0.0,1072.0,0.211333155632019
0.0,1073.0,0.2112932950258255
0.0,1074.0,0.2109701484441757
0.0,1075.0,0.2113851904869079
0.0,1076.0,0.2110766470432281
0.0,1077.0,0.2105839252471923
0.0,1078.0,0.2108900398015976
0.0,1079.0,0.2107116132974624
0.0,1080.0,0.2106748819351196
0.0,1081.0,0.2108138352632522
0.0,1082.0,0.2107612639665603
0.0,1083.0,0.2104739844799041
0.0,1084.0,0.2102724015712738
0.0,1085.0,0.2103356719017028
0.0,1086.0,0.2103004455566406
0.0,1087.0,0.2098652422428131
0.0,1088.0,0.209929883480072
0.0,1089.0,0.2100293189287185
0.0,1090.0,0.2097958326339721
0.0,1091.0,0.2094460427761078
0.0,1092.0,0.2095930427312851
0.0,1093.0,0.2095296829938888
0.0,1094.0,0.2097930759191513
0.0,1095.0,0.2096486538648605
0.0,1096.0,0.2093916088342666
0.0,1097.0,0.2089570015668869
0.0,1098.0,0.2091311365365982
0.0,1099.0,0.2092651277780532
0.0,1100.0,0.2090778946876526
0.0,1101.0,0.2092087417840957
0.0,1102.0,0.2089938521385193
0.0,1103.0,0.2091285735368728
0.0,1104.0,0.2087703049182891
0.0,1105.0,0.2084448337554931
0.0,1106.0,0.2086397856473922
0.0,1107.0,0.2084234952926635
0.0,1108.0,0.2081102430820465
0.0,1109.0,0.2084198743104934
0.0,1110.0,0.2086676955223083
0.0,1111.0,0.2080617547035217
0.0,1112.0,0.2085746079683303
0.0,1113.0,0.2080720216035843
0.0,1114.0,0.2081677168607711
0.0,1115.0,0.2079928368330001
0.0,1116.0,0.2080468535423278
0.0,1117.0,0.2077967524528503
0.0,1118.0,0.2078298032283783
0.0,1119.0,0.2076137512922287
0.0,1120.0,0.2074440419673919
0.0,1121.0,0.207445740699768
0.0,1122.0,0.2075950354337692
0.0,1123.0,0.2074404060840606
0.0,1124.0,0.2073599994182586
0.0,1125.0,0.2070666402578354
0.0,1126.0,0.207138642668724
0.0,1127.0,0.2073063403367996
0.0,1128.0,0.2072289139032364
0.0,1129.0,0.2069487422704696
0.0,1130.0,0.2069104015827179
0.0,1131.0,0.2069843709468841
0.0,1132.0,0.2066217213869094
0.0,1133.0,0.2065050899982452
0.0,1134.0,0.2068478912115097
0.0,1135.0,0.2065214067697525
0.0,1136.0,0.2066002190113067
0.0,1137.0,0.2062779068946838
0.0,1138.0,0.2066652327775955
0.0,1139.0,0.2061522901058197
0.0,1140.0,0.2065515667200088
0.0,1141.0,0.2060808092355728
0.0,1142.0,0.2058493345975875
0.0,1143.0,0.205906793475151
0.0,1144.0,0.2059566378593444
0.0,1145.0,0.2058362811803817
0.0,1146.0,0.205473780632019
0.0,1147.0,0.2056749314069748
0.0,1148.0,0.2058049142360687
0.0,1149.0,0.2056428641080856
0.0,1150.0,0.2049220949411392
0.0,1151.0,0.2053685039281845
0.0,1152.0,0.2055041193962097
0.0,1153.0,0.2051257044076919
0.0,1154.0,0.2050636112689972
0.0,1155.0,0.2053578943014145
0.0,1156.0,0.204960361123085
0.0,1157.0,0.2046400755643844
0.0,1158.0,0.204701080918312
0.0,1159.0,0.2049713134765625
0.0,1160.0,0.2045138329267501
0.0,1161.0,0.2046205997467041
0.0,1162.0,0.2047175765037536
0.0,1163.0,0.2044069319963455
0.0,1164.0,0.2041355967521667
0.0,1165.0,0.2043018192052841
0.0,1166.0,0.2042582929134369
0.0,1167.0,0.2041147649288177
0.0,1168.0,0.2038299739360809
0.0,1169.0,0.203712910413742
0.0,1170.0,0.2037962526082992
0.0,1171.0,0.2040625810623169
0.0,1172.0,0.2038290500640869
0.0,1173.0,0.2034017592668533
0.0,1174.0,0.2035142928361892
0.0,1175.0,0.2035192847251892
0.0,1176.0,0.2034031599760055
0.0,1177.0,0.2034558653831482
0.0,1178.0,0.2033457458019256
0.0,1179.0,0.2030675560235977
0.0,1180.0,0.2035455256700515
0.0,1181.0,0.2027211934328079
0.0,1182.0,0.2030041366815567
0.0,1183.0,0.2028247863054275
0.0,1184.0,0.2030695378780365
0.0,1185.0,0.202510729432106
0.0,1186.0,0.2028969973325729
0.0,1187.0,0.2031243592500686
0.0,1188.0,0.2027612775564193
0.0,1189.0,0.2023831307888031
0.0,1190.0,0.2028530687093734
0.0,1191.0,0.2030316144227981
0.0,1192.0,0.2024782449007034
0.0,1193.0,0.2020677030086517
0.0,1194.0,0.2019748091697693
0.0,1195.0,0.2018738985061645
0.0,1196.0,0.201810210943222
0.0,1197.0,0.2019892781972885
0.0,1198.0,0.2018146812915802
0.0,1199.0,0.2019937932491302
0.0,1200.0,0.2018234431743621
0.0,1201.0,0.2018200904130935
0.0,1202.0,0.2019728273153305
0.0,1203.0,0.2015582472085952
0.0,1204.0,0.2014476507902145
0.0,1205.0,0.2012612223625183
0.0,1206.0,0.2013792693614959
0.0,1207.0,0.2015289813280105
0.0,1208.0,0.2011196166276931
0.0,1209.0,0.2011802494525909
0.0,1210.0,0.201097160577774
0.0,1211.0,0.2009427547454834
0.0,1212.0,0.2009437829256057
0.0,1213.0,0.2007587403059005
0.0,1214.0,0.2011100202798843
0.0,1215.0,0.2006968706846237
0.0,1216.0,0.2007263749837875
0.0,1217.0,0.2009611576795578
0.0,1218.0,0.2006569057703018
0.0,1219.0,0.2006378471851349
0.0,1220.0,0.2006652057170868
0.0,1221.0,0.2003015875816345
0.0,1222.0,0.1999503672122955
0.0,1223.0,0.1998366862535476
0.0,1224.0,0.2000767886638641
0.0,1225.0,0.1996569484472274
0.0,1226.0,0.1997590065002441
0.0,1227.0,0.1998336315155029
0.0,1228.0,0.1998595148324966
0.0,1229.0,0.1996237784624099
0.0,1230.0,0.1996305286884308
0.0,1231.0,0.1995241045951843
0.0,1232.0,0.1995346844196319
0.0,1233.0,0.1995448768138885
0.0,1234.0,0.1995691508054733
0.0,1235.0,0.1994201093912124
0.0,1236.0,0.1991339176893234
0.0,1237.0,0.1988223195075988
0.0,1238.0,0.1988953202962875
0.0,1239.0,0.1991213709115982
0.0,1240.0,0.1989726722240448
0.0,1241.0,0.1989644318819046
0.0,1242.0,0.1987188309431076
0.0,1243.0,0.1987033635377884
0.0,1244.0,0.1985873430967331
0.0,1245.0,0.1986438930034637
0.0,1246.0,0.198465883731842
0.0,1247.0,0.1982561945915222
0.0,1248.0,0.1984146535396576
0.0,1249.0,0.1983057409524917
0.0,1250.0,0.1980472654104232
0.0,1251.0,0.1981702446937561
0.0,1252.0,0.1978525817394256
0.0,1253.0,0.1977991163730621
0.0,1254.0,0.1980206966400146
0.0,1255.0,0.1978427022695541
0.0,1256.0,0.1978686302900314
0.0,1257.0,0.1974721550941467
0.0,1258.0,0.1976304501295089
0.0,1259.0,0.1973386853933334
0.0,1260.0,0.1971621513366699
0.0,1261.0,0.1974557489156723
0.0,1262.0,0.1972799599170684
0.0,1263.0,0.197553813457489
0.0,1264.0,0.1972607225179672
0.0,1265.0,0.1969768404960632
0.0,1266.0,0.1969265937805175
0.0,1267.0,0.1969957798719406
0.0,1268.0,0.1967723220586776
0.0,1269.0,0.1964875608682632
0.0,1270.0,0.1967619210481643
0.0,1271.0,0.1966026574373245
0.0,1272.0,0.1970275640487671
0.0,1273.0,0.1963903307914734
0.0,1274.0,0.1961930245161056
0.0,1275.0,0.1962877660989761
0.0,1276.0,0.1961378455162048
0.0,1277.0,0.1958494484424591
0.0,1278.0,0.1962802559137344
0.0,1279.0,0.1959753334522247
0.0,1280.0,0.1956800520420074
0.0,1281.0,0.195992961525917
0.0,1282.0,0.1960011273622512
0.0,1283.0,0.1959161311388015
0.0,1284.0,0.1957879960536956
0.0,1285.0,0.1955752521753311
0.0,1286.0,0.1954743564128875
0.0,1287.0,0.19539575278759
0.0,1288.0,0.1956230401992797
0.0,1289.0,0.1956064850091934
0.0,1290.0,0.1950188130140304
0.0,1291.0,0.1951115131378173
0.0,1292.0,0.1948720216751098
0.0,1293.0,0.195156529545784
0.0,1294.0,0.1950825005769729
0.0,1295.0,0.1948762536048889
0.0,1296.0,0.1949547529220581
0.0,1297.0,0.1947951912879943
0.0,1298.0,0.1949990093708038
0.0,1299.0,0.1944359987974167
0.0,1300.0,0.1942790150642395
0.0,1301.0,0.1944851726293563
0.0,1302.0,0.194126009941101
0.0,1303.0,0.1943786293268203
0.0,1304.0,0.1944150328636169
0.0,1305.0,0.1939311176538467
0.0,1306.0,0.1941466778516769
0.0,1307.0,0.1940252482891082
0.0,1308.0,0.1938730776309967
0.0,1309.0,0.1939677149057388
0.0,1310.0,0.1938484907150268
0.0,1311.0,0.1937286555767059
0.0,1312.0,0.1937304586172104
0.0,1313.0,0.1934816390275955
0.0,1314.0,0.1936992406845092
0.0,1315.0,0.1933068484067917
0.0,1316.0,0.1934059113264084
0.0,1317.0,0.1934177875518798
0.0,1318.0,0.1931527853012085
0.0,1319.0,0.193162053823471
0.0,1320.0,0.1931113600730896
0.0,1321.0,0.1932355761528015
0.0,1322.0,0.1930526196956634
0.0,1323.0,0.1929075568914413
0.0,1324.0,0.193006619811058
0.0,1325.0,0.1928704530000686
0.0,1326.0,0.1925761252641677
0.0,1327.0,0.1927003860473632
0.0,1328.0,0.192771315574646
0.0,1329.0,0.1926556229591369
0.0,1330.0,0.1924132853746414
0.0,1331.0,0.1922313868999481
0.0,1332.0,0.1922342032194137
0.0,1333.0,0.1918816268444061
0.0,1334.0,0.1924113035202026
0.0,1335.0,0.1918329298496246
0.0,1336.0,0.1919350922107696
0.0,1337.0,0.1918042749166488
0.0,1338.0,0.1918539553880691
0.0,1339.0,0.1923475265502929
0.0,1340.0,0.1916808634996414
0.0,1341.0,0.1919675767421722
0.0,1342.0,0.1914870887994766
0.0,1343.0,0.1915854811668396
0.0,1344.0,0.1914316564798355
0.0,1345.0,0.1915046423673629
0.0,1346.0,0.1909759193658828
0.0,1347.0,0.1910131275653839
0.0,1348.0,0.1911350190639495
0.0,1349.0,0.1913564503192901
0.0,1350.0,0.1908999383449554
0.0,1351.0,0.1904550641775131
0.0,1352.0,0.190647006034851
0.0,1353.0,0.1908142566680908
0.0,1354.0,0.1907021850347519
0.0,1355.0,0.1905442327260971
0.0,1356.0,0.1906919330358505
0.0,1357.0,0.1904410272836685
0.0,1358.0,0.1901612132787704
0.0,1359.0,0.1900006383657455
0.0,1360.0,0.1905758827924728
0.0,1361.0,0.1902266144752502
0.0,1362.0,0.1904051452875137
0.0,1363.0,0.1899594068527221
0.0,1364.0,0.1899179220199585
0.0,1365.0,0.1899627447128296
0.0,1366.0,0.1900198608636856
0.0,1367.0,0.1896107494831085
0.0,1368.0,0.1895235776901245
0.0,1369.0,0.1894902139902115
0.0,1370.0,0.1894522607326507
0.0,1371.0,0.1893450766801834
0.0,1372.0,0.1895070523023605
0.0,1373.0,0.1892528384923935
0.0,1374.0,0.1892121136188507
0.0,1375.0,0.189277172088623
0.0,1376.0,0.1892932504415512
0.0,1377.0,0.1888938844203949
0.0,1378.0,0.1890043765306472
0.0,1379.0,0.1887651979923248
0.0,1380.0,0.1891353279352188
0.0,1381.0,0.1887843757867813
0.0,1382.0,0.1883801370859146
0.0,1383.0,0.1886798590421676
0.0,1384.0,0.1884937882423401
0.0,1385.0,0.1887886375188827
0.0,1386.0,0.1885470449924469
0.0,1387.0,0.1882021427154541
0.0,1388.0,0.1883613318204879
0.0,1389.0,0.1885008662939071
0.0,1390.0,0.1882433146238327
0.0,1391.0,0.1880211532115936
0.0,1392.0,0.1877852976322174
0.0,1393.0,0.1876513212919235
0.0,1394.0,0.1877854317426681
0.0,1395.0,0.187797263264656
0.0,1396.0,0.1873867213726043
0.0,1397.0,0.1878454685211181
0.0,1398.0,0.1875612884759903
0.0,1399.0,0.1876062303781509
0.0,1400.0,0.1874948740005493
0.0,1401.0,0.1872479021549224
0.0,1402.0,0.1872503757476806
0.0,1403.0,0.1872254461050033
0.0,1404.0,0.187215507030487
0.0,1405.0,0.1869733333587646
0.0,1406.0,0.1872706562280655
0.0,1407.0,0.1868824809789657
0.0,1408.0,0.186943307518959
0.0,1409.0,0.1867111474275589
0.0,1410.0,0.1867938935756683
0.0,1411.0,0.1862941086292266
0.0,1412.0,0.1864160597324371
0.0,1413.0,0.1861617714166641
0.0,1414.0,0.1862922310829162
0.0,1415.0,0.1864094883203506
0.0,1416.0,0.1864910423755645
0.0,1417.0,0.1862574070692062
0.0,1418.0,0.1860117465257644
0.0,1419.0,0.1863423585891723
0.0,1420.0,0.1857798546552658
0.0,1421.0,0.1857845038175583
0.0,1422.0,0.1857032030820846
0.0,1423.0,0.1859693974256515
0.0,1424.0,0.1859977394342422
0.0,1425.0,0.1859002858400344
0.0,1426.0,0.1857450306415558
0.0,1427.0,0.1855690330266952
0.0,1428.0,0.1855534017086029
0.0,1429.0,0.1853326261043548
0.0,1430.0,0.1858358830213546
0.0,1431.0,0.1852770298719406
0.0,1432.0,0.1852957159280777
0.0,1433.0,0.1851098984479904
0.0,1434.0,0.1850401610136032
0.0,1435.0,0.1850892603397369
0.0,1436.0,0.1848108768463134
0.0,1437.0,0.1846395432949066
0.0,1438.0,0.1848242431879043
0.0,1439.0,0.184950053691864
0.0,1440.0,0.1846394091844558
0.0,1441.0,0.1844466179609298
0.0,1442.0,0.1844968795776367
0.0,1443.0,0.1843383461236953
0.0,1444.0,0.1845116317272186
0.0,1445.0,0.1841267794370651
0.0,1446.0,0.1845154911279678
0.0,1447.0,0.1841918230056762
0.0,1448.0,0.1839583814144134
0.0,1449.0,0.1842172145843505
0.0,1450.0,0.1838564872741699
0.0,1451.0,0.1844938844442367
0.0,1452.0,0.1836289912462234
0.0,1453.0,0.1836550086736679
0.0,1454.0,0.1840012520551681
0.0,1455.0,0.1837811917066574
0.0,1456.0,0.183398962020874
0.0,1457.0,0.1833547502756118
0.0,1458.0,0.1832309365272522
0.0,1459.0,0.1837117820978164
0.0,1460.0,0.183485597372055
0.0,1461.0,0.1832011491060257
0.0,1462.0,0.1833793073892593
0.0,1463.0,0.1830218434333801
0.0,1464.0,0.1829862743616104
0.0,1465.0,0.182731419801712
0.0,1466.0,0.1828194260597229
0.0,1467.0,0.1830498576164245
0.0,1468.0,0.1826466917991638
0.0,1469.0,0.182927519083023
0.0,1470.0,0.1826783716678619
0.0,1471.0,0.182610347867012
0.0,1472.0,0.1825663149356842
0.0,1473.0,0.1824437528848648
0.0,1474.0,0.182233840227127
0.0,1475.0,0.1824309229850769
0.0,1476.0,0.1821142584085464
0.0,1477.0,0.1823298335075378
0.0,1478.0,0.1816271841526031
0.0,1479.0,0.1821527034044265
0.0,1480.0,0.1820612400770187
0.0,1481.0,0.181846871972084
0.0,1482.0,0.1819381415843963
0.0,1483.0,0.1816674917936325
0.0,1484.0,0.1817860007286071
0.0,1485.0,0.1819032430648803
0.0,1486.0,0.1813785582780838
0.0,1487.0,0.1813495606184005
0.0,1488.0,0.1812762916088104
0.0,1489.0,0.1811363101005554
0.0,1490.0,0.1810958683490753
0.0,1491.0,0.1811175048351287
0.0,1492.0,0.1810286939144134
0.0,1493.0,0.1809157729148864
0.0,1494.0,0.1810125261545181
0.0,1495.0,0.1812426894903183
0.0,1496.0,0.1807169914245605
0.0,1497.0,0.1807018965482711
0.0,1498.0,0.1803555488586425
0.0,1499.0,0.1805988103151321
0.0,1500.0,0.1803762167692184
0.0,1501.0,0.1803778111934662
0.0,1502.0,0.1806318014860153
0.0,1503.0,0.1802809685468673
0.0,1504.0,0.1802329570055008
0.0,1505.0,0.1799027174711227
0.0,1506.0,0.1803353726863861
0.0,1507.0,0.1800060868263244
0.0,1508.0,0.1797853708267212
0.0,1509.0,0.1799188554286956
0.0,1510.0,0.1798691302537918
0.0,1511.0,0.1794275045394897
0.0,1512.0,0.1796793937683105
0.0,1513.0,0.1796321421861648
0.0,1514.0,0.1795922815799713
0.0,1515.0,0.1796648651361465
0.0,1516.0,0.1791735142469406
0.0,1517.0,0.1789435148239135
0.0,1518.0,0.1794144809246063
0.0,1519.0,0.1793315112590789
0.0,1520.0,0.1792184114456176
0.0,1521.0,0.1791094541549682
0.0,1522.0,0.1790894567966461
0.0,1523.0,0.1790013611316681
0.0,1524.0,0.1789563000202179
0.0,1525.0,0.1787999719381332
0.0,1526.0,0.178545668721199
0.0,1527.0,0.1787630915641784
0.0,1528.0,0.1787619441747665
0.0,1529.0,0.178727701306343
0.0,1530.0,0.1785647273063659
0.0,1531.0,0.1783950626850128
0.0,1532.0,0.1783152967691421
0.0,1533.0,0.17818284034729
0.0,1534.0,0.1779264211654663
0.0,1535.0,0.1779174953699112
0.0,1536.0,0.1782534271478653
0.0,1537.0,0.1781339049339294
0.0,1538.0,0.1781938672065735
0.0,1539.0,0.177742451429367
0.0,1540.0,0.1776031255722046
0.0,1541.0,0.1777693629264831
0.0,1542.0,0.1775614470243454
0.0,1543.0,0.1775283217430114
0.0,1544.0,0.1776211261749267
0.0,1545.0,0.1774505525827407
0.0,1546.0,0.1771890372037887
0.0,1547.0,0.1772382259368896
0.0,1548.0,0.1772859692573547
0.0,1549.0,0.1771381944417953
0.0,1550.0,0.1770660430192947
0.0,1551.0,0.1772127747535705
0.0,1552.0,0.1767642050981521
0.0,1553.0,0.1767915040254593
0.0,1554.0,0.1768675148487091
0.0,1555.0,0.176808014512062
0.0,1556.0,0.1767272353172302
0.0,1557.0,0.1768212020397186
0.0,1558.0,0.1767961531877517
0.0,1559.0,0.1764593124389648
0.0,1560.0,0.1763662993907928
0.0,1561.0,0.1764187514781952
0.0,1562.0,0.1762662082910537
0.0,1563.0,0.176340714097023
0.0,1564.0,0.1759728342294693
0.0,1565.0,0.1762345433235168
0.0,1566.0,0.1760768145322799
0.0,1567.0,0.1758779287338256
0.0,1568.0,0.1761803925037384
0.0,1569.0,0.1758571118116378
0.0,1570.0,0.1757882833480835
0.0,1571.0,0.1753807365894317
0.0,1572.0,0.1756337583065033
0.0,1573.0,0.1755919903516769
0.0,1574.0,0.1752764284610748
0.0,1575.0,0.1756967902183532
0.0,1576.0,0.1753683537244796
0.0,1577.0,0.1753785759210586
0.0,1578.0,0.1748052239418029
0.0,1579.0,0.1750965565443039
0.0,1580.0,0.175051748752594
0.0,1581.0,0.1749574989080429
0.0,1582.0,0.174842357635498
0.0,1583.0,0.1750471889972686
0.0,1584.0,0.1748697906732559
0.0,1585.0,0.1749250590801239
0.0,1586.0,0.1746039092540741
0.0,1587.0,0.1742627918720245
0.0,1588.0,0.1748011112213134
0.0,1589.0,0.1744972914457321
0.0,1590.0,0.1744471192359924
0.0,1591.0,0.1741458475589752
0.0,1592.0,0.174167513847351
0.0,1593.0,0.1742951720952987
0.0,1594.0,0.1737337857484817
0.0,1595.0,0.1743085831403732
0.0,1596.0,0.174386516213417
0.0,1597.0,0.1737351268529892
0.0,1598.0,0.1740501672029495
0.0,1599.0,0.1738200336694717
0.0,1600.0,0.1735998839139938
0.0,1601.0,0.1738034635782241
0.0,1602.0,0.173635721206665
0.0,1603.0,0.1737682521343231
0.0,1604.0,0.1733823716640472
0.0,1605.0,0.1734747290611267
0.0,1606.0,0.1733603626489639
0.0,1607.0,0.1733417958021164
0.0,1608.0,0.1730001121759414
0.0,1609.0,0.1732999235391616
0.0,1610.0,0.1728687733411789
0.0,1611.0,0.1729903668165207
0.0,1612.0,0.1727937906980514
0.0,1613.0,0.1726044416427612
0.0,1614.0,0.1725769788026809
0.0,1615.0,0.1726066619157791
0.0,1616.0,0.1723249703645706
0.0,1617.0,0.1725492477416992
0.0,1618.0,0.1725266426801681
0.0,1619.0,0.172459676861763
0.0,1620.0,0.1725703626871109
0.0,1621.0,0.1724227666854858
0.0,1622.0,0.1723103523254394
0.0,1623.0,0.1720234006643295
0.0,1624.0,0.1726589500904083
0.0,1625.0,0.1718755364418029
0.0,1626.0,0.17183518409729
0.0,1627.0,0.1716991066932678
0.0,1628.0,0.1720341145992279
0.0,1629.0,0.1719367802143097
0.0,1630.0,0.171805053949356
0.0,1631.0,0.1717747151851654
0.0,1632.0,0.1717536449432373
0.0,1633.0,0.1716307550668716
0.0,1634.0,0.1713741868734359
0.0,1635.0,0.1713511794805526
0.0,1636.0,0.1712966859340667
0.0,1637.0,0.1712217926979065
0.0,1638.0,0.1711056679487228
0.0,1639.0,0.1709066182374954
0.0,1640.0,0.1710725724697113
0.0,1641.0,0.1708599776029586
0.0,1642.0,0.170736089348793
0.0,1643.0,0.1708515137434005
0.0,1644.0,0.170699343085289
0.0,1645.0,0.1709796041250229
0.0,1646.0,0.1705691665410995
0.0,1647.0,0.1702356338500976
0.0,1648.0,0.1706451177597046
0.0,1649.0,0.1704101860523224
0.0,1650.0,0.1703642606735229
0.0,1651.0,0.1702129989862442
0.0,1652.0,0.1700171828269958
0.0,1653.0,0.170142188668251
0.0,1654.0,0.170088917016983
0.0,1655.0,0.1700743287801742
0.0,1656.0,0.170025423169136
0.0,1657.0,0.1699591726064682
0.0,1658.0,0.1697315871715545
0.0,1659.0,0.1699725687503814
0.0,1660.0,0.1697506159543991
0.0,1661.0,0.1695702970027923
0.0,1662.0,0.1694628298282623
0.0,1663.0,0.1696095913648605
0.0,1664.0,0.1693310439586639
0.0,1665.0,0.169373482465744
0.0,1666.0,0.1691401749849319
0.0,1667.0,0.1690259873867035
0.0,1668.0,0.1692263633012771
0.0,1669.0,0.1691819131374359
0.0,1670.0,0.1692536771297454
0.0,1671.0,0.1688655167818069
0.0,1672.0,0.1684858798980713
0.0,1673.0,0.1688141375780105
0.0,1674.0,0.1687363237142563
0.0,1675.0,0.1688472628593444
0.0,1676.0,0.1686931550502777
0.0,1677.0,0.1686850041151046
0.0,1678.0,0.1683231741189956
0.0,1679.0,0.1683427542448043
0.0,1680.0,0.1685124486684799
0.0,1681.0,0.1683146804571151
0.0,1682.0,0.168508768081665
0.0,1683.0,0.1681290119886398
0.0,1684.0,0.1681758761405944
0.0,1685.0,0.1678546071052551
0.0,1686.0,0.167862057685852
0.0,1687.0,0.1681337356567382
0.0,1688.0,0.1678196936845779
0.0,1689.0,0.1676634699106216
0.0,1690.0,0.1677486449480056
0.0,1691.0,0.1674829125404358
0.0,1692.0,0.1672073602676391
0.0,1693.0,0.1676761955022812
0.0,1694.0,0.1672000139951706
0.0,1695.0,0.1674053221940994
0.0,1696.0,0.1675070077180862
0.0,1697.0,0.1673270165920257
0.0,1698.0,0.1672179102897644
0.0,1699.0,0.1672915816307068
0.0,1700.0,0.166894719004631
0.0,1701.0,0.1667810827493667
0.0,1702.0,0.1671858578920364
0.0,1703.0,0.1668570637702942
0.0,1704.0,0.1667286902666092
0.0,1705.0,0.1664001941680908
0.0,1706.0,0.1664261221885681
0.0,1707.0,0.1664942800998687
0.0,1708.0,0.1666212975978851
0.0,1709.0,0.1666030585765838
0.0,1710.0,0.166184201836586
0.0,1711.0,0.1664253324270248
0.0,1712.0,0.1664688885211944
0.0,1713.0,0.1664298623800277
0.0,1714.0,0.1660647392272949
0.0,1715.0,0.166100263595581
0.0,1716.0,0.1657572239637375
0.0,1717.0,0.1657487452030182
0.0,1718.0,0.1656951159238815
0.0,1719.0,0.16597980260849
0.0,1720.0,0.1657382100820541
0.0,1721.0,0.1656342595815658
0.0,1722.0,0.1655239760875702
0.0,1723.0,0.1654516458511352
0.0,1724.0,0.1653102487325668
0.0,1725.0,0.1652831435203552
0.0,1726.0,0.1655407696962356
0.0,1727.0,0.1655889004468917
0.0,1728.0,0.1650463342666626
0.0,1729.0,0.1651509553194046
0.0,1730.0,0.1650889813899994
0.0,1731.0,0.1648458987474441
0.0,1732.0,0.1650471836328506
0.0,1733.0,0.1649606823921203
0.0,1734.0,0.1646322757005691
0.0,1735.0,0.1645152121782302
0.0,1736.0,0.1645890176296234
0.0,1737.0,0.1645801067352295
0.0,1738.0,0.1646501719951629
0.0,1739.0,0.1645324379205703
0.0,1740.0,0.1644579768180847
0.0,1741.0,0.1643099635839462
0.0,1742.0,0.1643310040235519
0.0,1743.0,0.1641773432493209
0.0,1744.0,0.164250835776329
0.0,1745.0,0.1642282605171203
0.0,1746.0,0.1642069965600967
0.0,1747.0,0.1640777140855789
0.0,1748.0,0.1640964895486831
0.0,1749.0,0.1636202037334442
0.0,1750.0,0.1635205000638961
0.0,1751.0,0.1636241376399994
0.0,1752.0,0.1635343432426452
0.0,1753.0,0.1635815501213073
0.0,1754.0,0.1634752452373504
0.0,1755.0,0.1632609367370605
0.0,1756.0,0.1632836461067199
0.0,1757.0,0.1630403250455856
0.0,1758.0,0.1632907092571258
0.0,1759.0,0.1629880666732788
0.0,1760.0,0.1630290001630783
0.0,1761.0,0.163074180483818
0.0,1762.0,0.1629684716463089
0.0,1763.0,0.1628371030092239
0.0,1764.0,0.1628172993659973
0.0,1765.0,0.1626142263412475
0.0,1766.0,0.1625354886054992
0.0,1767.0,0.1627900153398513
0.0,1768.0,0.1624794900417328
0.0,1769.0,0.1626773178577423
0.0,1770.0,0.1622456759214401
0.0,1771.0,0.1623856872320175
0.0,1772.0,0.162378042936325
0.0,1773.0,0.1621901541948318
0.0,1774.0,0.1621748805046081
0.0,1775.0,0.162358209490776
0.0,1776.0,0.1619629114866256
0.0,1777.0,0.1621285229921341
0.0,1778.0,0.1619448363780975
0.0,1779.0,0.1617944687604904
0.0,1780.0,0.1617903858423233
0.0,1781.0,0.1617573350667953
0.0,1782.0,0.1618311107158661
0.0,1783.0,0.1618189662694931
0.0,1784.0,0.161716803908348
0.0,1785.0,0.1615214943885803
0.0,1786.0,0.161381721496582
0.0,1787.0,0.1613299548625946
0.0,1788.0,0.160962700843811
0.0,1789.0,0.1609328687191009
0.0,1790.0,0.1612895876169204
0.0,1791.0,0.161150112748146
0.0,1792.0,0.1609025448560714
0.0,1793.0,0.1608977019786834
0.0,1794.0,0.1609156280755996
0.0,1795.0,0.160816878080368
0.0,1796.0,0.1604957580566406
0.0,1797.0,0.160763218998909
0.0,1798.0,0.1607425212860107
0.0,1799.0,0.1606341451406479
0.0,1800.0,0.1604414284229278
0.0,1801.0,0.1604523360729217
0.0,1802.0,0.1604889929294586
0.0,1803.0,0.1601536571979522
0.0,1804.0,0.1601936817169189
0.0,1805.0,0.1603776514530182
0.0,1806.0,0.160128965973854
0.0,1807.0,0.1602339893579483
0.0,1808.0,0.1600842028856277
0.0,1809.0,0.1598724573850631
0.0,1810.0,0.1599760949611663
0.0,1811.0,0.1597064584493637
0.0,1812.0,0.1595661342144012
0.0,1813.0,0.159490093588829
0.0,1814.0,0.1595696359872818
0.0,1815.0,0.1597579270601272
0.0,1816.0,0.1594260334968567
0.0,1817.0,0.1595112383365631
0.0,1818.0,0.1594700962305069
0.0,1819.0,0.1591504216194152
0.0,1820.0,0.1591638326644897
0.0,1821.0,0.1592531502246856
0.0,1822.0,0.159121036529541
0.0,1823.0,0.1589525043964386
0.0,1824.0,0.1591944247484207
0.0,1825.0,0.1586828380823135
0.0,1826.0,0.158920869231224
0.0,1827.0,0.15873384475708
0.0,1828.0,0.1586587578058242
0.0,1829.0,0.1586774289608001
0.0,1830.0,0.1586020588874817
0.0,1831.0,0.1583459079265594
0.0,1832.0,0.1584896892309188
0.0,1833.0,0.1583347022533416
0.0,1834.0,0.1584425717592239
0.0,1835.0,0.1584494262933731
0.0,1836.0,0.1578600108623504
0.0,1837.0,0.1580875515937805
0.0,1838.0,0.158038705587387
0.0,1839.0,0.1580369174480438
0.0,1840.0,0.1577450782060623
0.0,1841.0,0.1580967903137207
0.0,1842.0,0.1576574146747589
0.0,1843.0,0.1577711254358291
0.0,1844.0,0.1577802747488021
0.0,1845.0,0.1577199250459671
0.0,1846.0,0.1575086265802383
0.0,1847.0,0.1575593203306198
0.0,1848.0,0.1573251336812973
0.0,1849.0,0.1574718207120895
0.0,1850.0,0.1570115089416504
0.0,1851.0,0.1571355164051056
0.0,1852.0,0.1570640057325363
0.0,1853.0,0.1570551097393036
0.0,1854.0,0.1568396091461181
0.0,1855.0,0.1569199711084365
0.0,1856.0,0.1567239612340927
0.0,1857.0,0.1566274017095565
0.0,1858.0,0.1566123366355896
0.0,1859.0,0.156738594174385
0.0,1860.0,0.1564024835824966
0.0,1861.0,0.1566549092531204
0.0,1862.0,0.156566247344017
0.0,1863.0,0.1563530713319778
0.0,1864.0,0.1561967730522155
0.0,1865.0,0.1561958938837051
0.0,1866.0,0.1561660021543502
0.0,1867.0,0.1561455428600311
0.0,1868.0,0.1558915227651596
0.0,1869.0,0.1559371948242187
0.0,1870.0,0.1559602469205856
0.0,1871.0,0.1558379381895065
0.0,1872.0,0.1557511091232299
0.0,1873.0,0.1559216231107711
0.0,1874.0,0.1556301414966583
0.0,1875.0,0.1556143313646316
0.0,1876.0,0.1557341814041137
0.0,1877.0,0.1553502380847931
0.0,1878.0,0.1553888171911239
0.0,1879.0,0.1554052680730819
0.0,1880.0,0.1553720086812973
0.0,1881.0,0.1551938354969024
0.0,1882.0,0.1550248563289642
0.0,1883.0,0.1550051569938659
0.0,1884.0,0.1549718230962753
0.0,1885.0,0.1548803299665451
0.0,1886.0,0.1550667583942413
0.0,1887.0,0.1550725251436233
0.0,1888.0,0.155012622475624
0.0,1889.0,0.154615581035614
0.0,1890.0,0.1546248346567154
0.0,1891.0,0.1547028869390487
0.0,1892.0,0.154653713107109
0.0,1893.0,0.15444116294384
0.0,1894.0,0.1544552594423294
0.0,1895.0,0.1543584316968917
0.0,1896.0,0.1542712152004242
0.0,1897.0,0.1540575623512268
0.0,1898.0,0.1539804339408874
0.0,1899.0,0.1540726870298385
0.0,1900.0,0.1541049480438232
0.0,1901.0,0.1538311839103698
0.0,1902.0,0.1539040505886078
0.0,1903.0,0.1538977026939392
0.0,1904.0,0.1539214551448822
0.0,1905.0,0.1537654846906662
0.0,1906.0,0.1536506116390228
0.0,1907.0,0.1536501348018646
0.0,1908.0,0.1535436511039734
0.0,1909.0,0.1534127444028854
0.0,1910.0,0.1534390896558761
0.0,1911.0,0.153380811214447
0.0,1912.0,0.1532614678144455
0.0,1913.0,0.1530018150806427
0.0,1914.0,0.1530181318521499
0.0,1915.0,0.1532280892133712
0.0,1916.0,0.1530029028654098
0.0,1917.0,0.1532075852155685
0.0,1918.0,0.1528322845697403
0.0,1919.0,0.1529247164726257
0.0,1920.0,0.1527851074934005
0.0,1921.0,0.1526562571525573
0.0,1922.0,0.1529763042926788
0.0,1923.0,0.1524730026721954
0.0,1924.0,0.152324691414833
0.0,1925.0,0.1523100137710571
0.0,1926.0,0.152338907122612
0.0,1927.0,0.1521533727645874
0.0,1928.0,0.1522891968488693
0.0,1929.0,0.1519819796085357
0.0,1930.0,0.1524135619401931
0.0,1931.0,0.1520576179027557
0.0,1932.0,0.1518462896347046
0.0,1933.0,0.1519401371479034
0.0,1934.0,0.1517938822507858
0.0,1935.0,0.1515364646911621
0.0,1936.0,0.1515714079141616
0.0,1937.0,0.151731476187706
0.0,1938.0,0.1514317542314529
0.0,1939.0,0.1515401899814605
0.0,1940.0,0.1514723449945449
0.0,1941.0,0.1514696925878524
0.0,1942.0,0.1514864712953567
0.0,1943.0,0.1512344777584076
0.0,1944.0,0.1513488590717315
0.0,1945.0,0.1509935855865478
0.0,1946.0,0.1511571109294891
0.0,1947.0,0.1510061174631118
0.0,1948.0,0.1507508009672165
0.0,1949.0,0.1509646624326706
0.0,1950.0,0.1506529301404953
0.0,1951.0,0.1506807953119278
0.0,1952.0,0.1507197618484497
0.0,1953.0,0.1505990177392959
0.0,1954.0,0.1507406085729599
0.0,1955.0,0.1504883915185928
0.0,1956.0,0.1505468785762787
0.0,1957.0,0.1506706178188324
0.0,1958.0,0.1503100991249084
0.0,1959.0,0.1501137018203735
0.0,1960.0,0.1500897109508514
0.0,1961.0,0.1503810733556747
0.0,1962.0,0.1501126140356063
0.0,1963.0,0.1500357985496521
0.0,1964.0,0.1496547162532806
0.0,1965.0,0.149646982550621
0.0,1966.0,0.1496596187353134
0.0,1967.0,0.1495528519153595
0.0,1968.0,0.1497791558504104
0.0,1969.0,0.1494972556829452
0.0,1970.0,0.1495865732431411
0.0,1971.0,0.1492499560117721
0.0,1972.0,0.1493180841207504
0.0,1973.0,0.149516761302948
0.0,1974.0,0.1495855450630188
0.0,1975.0,0.1491760164499282
0.0,1976.0,0.1492045223712921
0.0,1977.0,0.1489764153957367
0.0,1978.0,0.1488936394453048
0.0,1979.0,0.1487641185522079
0.0,1980.0,0.1490069180727005
0.0,1981.0,0.1489367932081222
0.0,1982.0,0.1486760973930359
0.0,1983.0,0.1488807499408722
0.0,1984.0,0.1485879570245742
0.0,1985.0,0.1484435796737671
0.0,1986.0,0.1486747562885284
0.0,1987.0,0.1483862549066543
0.0,1988.0,0.1484711468219757
0.0,1989.0,0.1485393196344375
0.0,1990.0,0.148365318775177
0.0,1991.0,0.1481073349714279
0.0,1992.0,0.1482768654823303
0.0,1993.0,0.1482967138290405
0.0,1994.0,0.1480180621147155
0.0,1995.0,0.1478291302919387
0.0,1996.0,0.1479686647653579
0.0,1997.0,0.1477082222700119
0.0,1998.0,0.1478933840990066
0.0,1999.0,0.1476684212684631
0.0,2000.0,0.1476796567440033
0.0,2001.0,0.1476236879825592
0.0,2002.0,0.1475602388381958
0.0,2003.0,0.1474657207727432
0.0,2004.0,0.1474152952432632
0.0,2005.0,0.1474190205335617
0.0,2006.0,0.147181898355484
0.0,2007.0,0.1472214311361313
0.0,2008.0,0.1471929401159286
0.0,2009.0,0.1469836831092834
0.0,2010.0,0.1470972448587417
0.0,2011.0,0.1471026837825775
0.0,2012.0,0.1467390358448028
0.0,2013.0,0.1469181329011917
0.0,2014.0,0.1466478258371353
0.0,2015.0,0.1465156376361847
0.0,2016.0,0.1464181691408157
0.0,2017.0,0.146626278758049
0.0,2018.0,0.1466532051563263
0.0,2019.0,0.1463260650634765
0.0,2020.0,0.1462757289409637
0.0,2021.0,0.1462097913026809
0.0,2022.0,0.146304577589035
0.0,2023.0,0.1464134305715561
0.0,2024.0,0.145903542637825
0.0,2025.0,0.1461804658174514
0.0,2026.0,0.1460837721824646
0.0,2027.0,0.1458228528499603
0.0,2028.0,0.145867720246315
0.0,2029.0,0.1458307653665542
0.0,2030.0,0.1457687467336654
0.0,2031.0,0.1456042528152465
0.0,2032.0,0.1455109417438507
0.0,2033.0,0.1456206738948822
0.0,2034.0,0.1455022394657135
0.0,2035.0,0.14564149081707
0.0,2036.0,0.1454698592424392
0.0,2037.0,0.1452075690031051
0.0,2038.0,0.1450950652360916
0.0,2039.0,0.1453591287136078
0.0,2040.0,0.1452338099479675
0.0,2041.0,0.1448340564966201
0.0,2042.0,0.1449456810951233
0.0,2043.0,0.1448684334754943
0.0,2044.0,0.1447819769382476
0.0,2045.0,0.1448826491832733
0.0,2046.0,0.1448370814323425
0.0,2047.0,0.1447930932044983
0.0,2048.0,0.1446717083454132
0.0,2049.0,0.1445803642272949
0.0,2050.0,0.1445766985416412
0.0,2051.0,0.1445841193199157
0.0,2052.0,0.1444775462150573
0.0,2053.0,0.1442763954401016
0.0,2054.0,0.14427050948143
0.0,2055.0,0.1442337036132812
0.0,2056.0,0.1441895812749862
0.0,2057.0,0.1440803557634353
0.0,2058.0,0.1440144479274749
0.0,2059.0,0.1438237726688385
0.0,2060.0,0.1439768224954605
0.0,2061.0,0.1436683535575866
0.0,2062.0,0.1435686200857162
0.0,2063.0,0.1436366289854049
0.0,2064.0,0.1435102075338363
0.0,2065.0,0.1437182128429412
0.0,2066.0,0.1433039903640747
0.0,2067.0,0.1434091478586197
0.0,2068.0,0.1432284861803054
0.0,2069.0,0.1433770209550857
0.0,2070.0,0.1432133466005325
0.0,2071.0,0.1429525017738342
0.0,2072.0,0.1431264728307724
0.0,2073.0,0.1431037932634353
0.0,2074.0,0.1429604440927505
0.0,2075.0,0.1429356932640075
0.0,2076.0,0.1428999155759811
0.0,2077.0,0.1428695023059845
0.0,2078.0,0.1426911354064941
0.0,2079.0,0.1427396833896637
0.0,2080.0,0.142696812748909
0.0,2081.0,0.1424501836299896
0.0,2082.0,0.1425215005874633
0.0,2083.0,0.1425333768129348
0.0,2084.0,0.1422696709632873
0.0,2085.0,0.1422714740037918
0.0,2086.0,0.1421766579151153
0.0,2087.0,0.142363891005516
0.0,2088.0,0.1422467976808548
0.0,2089.0,0.1421449184417724
0.0,2090.0,0.1418731957674026
0.0,2091.0,0.1418182700872421
0.0,2092.0,0.1419313997030258
0.0,2093.0,0.141953244805336
0.0,2094.0,0.1416787952184677
0.0,2095.0,0.1418037712574005
0.0,2096.0,0.1415870785713195
0.0,2097.0,0.1416082382202148
0.0,2098.0,0.1414307504892349
0.0,2099.0,0.1415930539369583
0.0,2100.0,0.1414330303668975
0.0,2101.0,0.1411420255899429
0.0,2102.0,0.1413912326097488
0.0,2103.0,0.1411485224962234
0.0,2104.0,0.14113849401474
0.0,2105.0,0.1411024332046508
0.0,2106.0,0.1409584879875183
0.0,2107.0,0.1408365964889526
0.0,2108.0,0.1407711207866668
0.0,2109.0,0.1408671289682388
0.0,2110.0,0.1406071335077285
0.0,2111.0,0.1406219601631164
0.0,2112.0,0.1405354589223861
0.0,2113.0,0.1404123306274414
0.0,2114.0,0.140475794672966
0.0,2115.0,0.1405194699764251
0.0,2116.0,0.1404724270105362
0.0,2117.0,0.1404055953025818
0.0,2118.0,0.1403092443943023
0.0,2119.0,0.1404439806938171
0.0,2120.0,0.1403035819530487
0.0,2121.0,0.1400793492794037
0.0,2122.0,0.14004947245121
0.0,2123.0,0.1401144564151764
0.0,2124.0,0.140160247683525
0.0,2125.0,0.1398889720439911
0.0,2126.0,0.1396648734807968
0.0,2127.0,0.1395991146564483
0.0,2128.0,0.1396164894104004
0.0,2129.0,0.1395634561777115
0.0,2130.0,0.1393995881080627
0.0,2131.0,0.1395956426858902
0.0,2132.0,0.139334037899971
0.0,2133.0,0.1393398940563202
0.0,2134.0,0.1392516195774078
0.0,2135.0,0.1391937434673309
0.0,2136.0,0.139129564166069
0.0,2137.0,0.1390387862920761
0.0,2138.0,0.1388284415006637
0.0,2139.0,0.1389532089233398
0.0,2140.0,0.1390417218208313
0.0,2141.0,0.1389605700969696
0.0,2142.0,0.1388815343379974
0.0,2143.0,0.1386720687150955
0.0,2144.0,0.1387250572443008
0.0,2145.0,0.1385861337184906
0.0,2146.0,0.1385623216629028
0.0,2147.0,0.1386406868696212
0.0,2148.0,0.1385063678026199
0.0,2149.0,0.1383021622896194
0.0,2150.0,0.1382349729537964
0.0,2151.0,0.1382520347833633
0.0,2152.0,0.1383415907621383
0.0,2153.0,0.1382009983062744
0.0,2154.0,0.1380144506692886
0.0,2155.0,0.1380080133676529
0.0,2156.0,0.1379296034574508
0.0,2157.0,0.13773213326931
0.0,2158.0,0.1378227025270462
0.0,2159.0,0.1377589702606201
0.0,2160.0,0.1377186179161071
0.0,2161.0,0.1376185864210128
0.0,2162.0,0.137653186917305
0.0,2163.0,0.1375869810581207
0.0,2164.0,0.1373990029096603
0.0,2165.0,0.1375353038311004
0.0,2166.0,0.1373789608478546
0.0,2167.0,0.1371290534734726
0.0,2168.0,0.13737154006958
0.0,2169.0,0.1371260583400726
0.0,2170.0,0.1370534747838974
0.0,2171.0,0.1371142268180847
0.0,2172.0,0.1371297836303711
0.0,2173.0,0.1368592679500579
0.0,2174.0,0.1367548704147339
0.0,2175.0,0.1367731839418411
0.0,2176.0,0.1370615512132644
0.0,2177.0,0.1365964561700821
0.0,2178.0,0.1364967972040176
0.0,2179.0,0.1363274157047271
0.0,2180.0,0.1363252103328704
0.0,2181.0,0.1365837007761001
0.0,2182.0,0.1363382488489151
0.0,2183.0,0.1363744586706161
0.0,2184.0,0.1362069398164749
0.0,2185.0,0.1362630128860473
0.0,2186.0,0.1358633935451507
0.0,2187.0,0.1360658556222915
0.0,2188.0,0.1359532922506332
0.0,2189.0,0.1358209252357483
0.0,2190.0,0.1357975900173187
0.0,2191.0,0.1356663554906845
0.0,2192.0,0.135612279176712
0.0,2193.0,0.1356233358383178
0.0,2194.0,0.1354483515024185
0.0,2195.0,0.1354990452528
0.0,2196.0,0.1354116052389145
0.0,2197.0,0.135335773229599
0.0,2198.0,0.1352687627077102
0.0,2199.0,0.1352726221084594
0.0,2200.0,0.1352149397134781
0.0,2201.0,0.1351294666528701
0.0,2202.0,0.1351352632045745
0.0,2203.0,0.135095402598381
0.0,2204.0,0.1349997669458389
0.0,2205.0,0.1349040418863296
0.0,2206.0,0.134858027100563
0.0,2207.0,0.1348676830530166
0.0,2208.0,0.1348087042570114
0.0,2209.0,0.1344896703958511
0.0,2210.0,0.1345726251602172
0.0,2211.0,0.1346624940633773
0.0,2212.0,0.1345266848802566
0.0,2213.0,0.1344590336084365
0.0,2214.0,0.1344739347696304
0.0,2215.0,0.1343119740486145
0.0,2216.0,0.1341041326522827
0.0,2217.0,0.1340946555137634
0.0,2218.0,0.1341545581817627
0.0,2219.0,0.1341735273599624
0.0,2220.0,0.13388691842556
0.0,2221.0,0.1339433044195175
0.0,2222.0,0.1338902860879898
0.0,2223.0,0.1338267922401428
0.0,2224.0,0.1339034289121627
0.0,2225.0,0.1336662620306015
0.0,2226.0,0.1336385011672973
0.0,2227.0,0.1337097138166427
0.0,2228.0,0.1334844529628753
0.0,2229.0,0.1334557235240936
0.0,2230.0,0.1335780620574951
0.0,2231.0,0.1333032399415969
0.0,2232.0,0.1332869380712509
0.0,2233.0,0.1331887543201446
0.0,2234.0,0.1331799626350402
0.0,2235.0,0.1329799145460128
0.0,2236.0,0.1329660564661026
0.0,2237.0,0.1329152137041092
0.0,2238.0,0.1329553574323654
0.0,2239.0,0.1329291760921478
0.0,2240.0,0.1329457312822342
0.0,2241.0,0.1328581422567367
0.0,2242.0,0.132644698023796
0.0,2243.0,0.1326664835214615
0.0,2244.0,0.132442906498909
0.0,2245.0,0.1324313133955001
0.0,2246.0,0.132401168346405
0.0,2247.0,0.132397174835205
0.0,2248.0,0.1322933584451675
0.0,2249.0,0.1322167664766311
0.0,2250.0,0.1323252320289611
0.0,2251.0,0.1322018951177597
0.0,2252.0,0.1321226507425308
0.0,2253.0,0.1320049464702606
0.0,2254.0,0.1321326941251754
0.0,2255.0,0.1318068653345108
0.0,2256.0,0.1318205296993255
0.0,2257.0,0.1317876577377319
0.0,2258.0,0.1317610740661621
0.0,2259.0,0.131684809923172
0.0,2260.0,0.1314952075481414
0.0,2261.0,0.1316081136465072
0.0,2262.0,0.131487101316452
0.0,2263.0,0.1316065043210983
0.0,2264.0,0.1313585340976715
0.0,2265.0,0.1313481777906417
0.0,2266.0,0.1311451941728592
0.0,2267.0,0.1313098222017288
0.0,2268.0,0.1311255842447281
0.0,2269.0,0.131053939461708
0.0,2270.0,0.130867525935173
0.0,2271.0,0.1309757530689239
0.0,2272.0,0.1309510022401809
0.0,2273.0,0.1308817267417907
0.0,2274.0,0.130686268210411
0.0,2275.0,0.1306910663843155
0.0,2276.0,0.1304685771465301
0.0,2277.0,0.1306542009115219
0.0,2278.0,0.1304861158132553
0.0,2279.0,0.1304987519979477
0.0,2280.0,0.1305118948221206
0.0,2281.0,0.1303584575653076
0.0,2282.0,0.1303296834230423
0.0,2283.0,0.1301308870315551
0.0,2284.0,0.1302701383829116
0.0,2285.0,0.1302588135004043
0.0,2286.0,0.1301295459270477
0.0,2287.0,0.1299882531166076
0.0,2288.0,0.1300508677959442
0.0,2289.0,0.1297664642333984
0.0,2290.0,0.1296675205230713
0.0,2291.0,0.1296201944351196
0.0,2292.0,0.1297418177127838
0.0,2293.0,0.1296293139457702
0.0,2294.0,0.1297037452459335
0.0,2295.0,0.1293690502643585
0.0,2296.0,0.1295106112957
0.0,2297.0,0.1293207854032516
0.0,2298.0,0.1293044090270996
0.0,2299.0,0.1290791034698486
0.0,2300.0,0.1292420476675033
0.0,2301.0,0.1292335987091064
0.0,2302.0,0.1291122138500213
0.0,2303.0,0.1289197504520416
0.0,2304.0,0.1290380805730819
0.0,2305.0,0.1289379000663757
0.0,2306.0,0.1288358569145202
0.0,2307.0,0.1287391781806945
0.0,2308.0,0.1286825835704803
0.0,2309.0,0.1286696493625641
0.0,2310.0,0.1286585032939911
0.0,2311.0,0.1285512298345565
0.0,2312.0,0.1285275369882583
0.0,2313.0,0.1284640431404113
0.0,2314.0,0.1282257586717605
0.0,2315.0,0.1281883269548416
0.0,2316.0,0.128318190574646
0.0,2317.0,0.1281291544437408
0.0,2318.0,0.1280556917190551
0.0,2319.0,0.1282269209623336
0.0,2320.0,0.1280036270618438
0.0,2321.0,0.1278869211673736
0.0,2322.0,0.1279292553663253
0.0,2323.0,0.1277811080217361
0.0,2324.0,0.1278033703565597
0.0,2325.0,0.1277064681053161
0.0,2326.0,0.127625897526741
0.0,2327.0,0.1274181604385376
0.0,2328.0,0.1273656040430069
0.0,2329.0,0.1273684650659561
0.0,2330.0,0.1274732947349548
0.0,2331.0,0.1274569630622863
0.0,2332.0,0.127242311835289
0.0,2333.0,0.1271254420280456
0.0,2334.0,0.1271524280309677
0.0,2335.0,0.1271377801895141
0.0,2336.0,0.1271268427371978
0.0,2337.0,0.1270365566015243
0.0,2338.0,0.1268621534109115
0.0,2339.0,0.12676502764225
0.0,2340.0,0.1267849653959274
0.0,2341.0,0.1265933811664581
0.0,2342.0,0.1266168802976608
0.0,2343.0,0.1266204714775085
0.0,2344.0,0.1267135143280029
0.0,2345.0,0.1265733242034912
0.0,2346.0,0.1262711733579635
0.0,2347.0,0.1263069212436676
0.0,2348.0,0.1262448728084564
0.0,2349.0,0.1262543797492981
0.0,2350.0,0.1263508051633834
0.0,2351.0,0.1261178255081176
0.0,2352.0,0.1261608302593231
0.0,2353.0,0.1260948777198791
0.0,2354.0,0.1259223967790603
0.0,2355.0,0.1258404552936554
0.0,2356.0,0.1259112209081649
0.0,2357.0,0.1256297677755355
0.0,2358.0,0.1254637390375137
0.0,2359.0,0.1256970018148422
0.0,2360.0,0.1255177706480026
0.0,2361.0,0.1256609857082367
0.0,2362.0,0.1255554109811782
0.0,2363.0,0.1255655735731125
0.0,2364.0,0.1252789050340652
0.0,2365.0,0.1251607090234756
0.0,2366.0,0.1252466589212417
0.0,2367.0,0.1251245290040969
0.0,2368.0,0.125066876411438
0.0,2369.0,0.1249052584171295
0.0,2370.0,0.1249407231807708
0.0,2371.0,0.1249544396996498
0.0,2372.0,0.1247867196798324
0.0,2373.0,0.1247981563210487
0.0,2374.0,0.1248401254415512
0.0,2375.0,0.1247235462069511
0.0,2376.0,0.1245616897940635
0.0,2377.0,0.124595396220684
0.0,2378.0,0.1245719343423843
0.0,2379.0,0.1244618892669677
0.0,2380.0,0.1245069876313209
0.0,2381.0,0.1243813633918762
0.0,2382.0,0.1244394704699516
0.0,2383.0,0.1240456774830818
0.0,2384.0,0.124100849032402
0.0,2385.0,0.1240466088056564
0.0,2386.0,0.1239327043294906
0.0,2387.0,0.1238917112350463
0.0,2388.0,0.1237612441182136
0.0,2389.0,0.1237791031599044
0.0,2390.0,0.1239085495471954
0.0,2391.0,0.1237881854176521
0.0,2392.0,0.1236671283841133
0.0,2393.0,0.1235879734158515
0.0,2394.0,0.1235445290803909
0.0,2395.0,0.1234309151768684
0.0,2396.0,0.1234884187579155
0.0,2397.0,0.1232681646943092
0.0,2398.0,0.123195506632328
0.0,2399.0,0.1233506724238395
0.0,2400.0,0.1231202036142349
0.0,2401.0,0.1230177208781242
0.0,2402.0,0.1230076700448989
0.0,2403.0,0.1229533925652504
0.0,2404.0,0.12300506234169
0.0,2405.0,0.1230089589953422
0.0,2406.0,0.1227765902876854
0.0,2407.0,0.1228023692965507
0.0,2408.0,0.1226507127285003
0.0,2409.0,0.1226326003670692
0.0,2410.0,0.1227607429027557
0.0,2411.0,0.1224423423409462
0.0,2412.0,0.1224118992686271
0.0,2413.0,0.1224660128355026
0.0,2414.0,0.1222957298159599
0.0,2415.0,0.1222232952713966
0.0,2416.0,0.1224038228392601
0.0,2417.0,0.12221110612154
0.0,2418.0,0.1222491487860679
0.0,2419.0,0.1220646202564239
0.0,2420.0,0.1220270246267318
0.0,2421.0,0.1219056919217109
0.0,2422.0,0.1217119395732879
0.0,2423.0,0.1218350157141685
0.0,2424.0,0.1217416003346443
0.0,2425.0,0.1217393279075622
0.0,2426.0,0.1216182485222816
0.0,2427.0,0.1216097623109817
0.0,2428.0,0.1214769780635833
0.0,2429.0,0.1213969737291336
0.0,2430.0,0.1213996112346649
0.0,2431.0,0.1215997189283371
0.0,2432.0,0.1212841793894767
0.0,2433.0,0.1211500018835067
0.0,2434.0,0.1211543530225753
0.0,2435.0,0.1210169643163681
0.0,2436.0,0.1210020631551742
0.0,2437.0,0.121019534766674
0.0,2438.0,0.1208235472440719
0.0,2439.0,0.1207665205001831
0.0,2440.0,0.1207647770643234
0.0,2441.0,0.1209218353033065
0.0,2442.0,0.1206239089369773
0.0,2443.0,0.1207197979092598
0.0,2444.0,0.1205683872103691
0.0,2445.0,0.1204568371176719
0.0,2446.0,0.1203417107462883
0.0,2447.0,0.1203504875302314
0.0,2448.0,0.120329774916172
0.0,2449.0,0.1203043535351753
0.0,2450.0,0.1202052310109138
0.0,2451.0,0.120165430009365
0.0,2452.0,0.1200942546129226
0.0,2453.0,0.1201642453670501
0.0,2454.0,0.1198970675468444
0.0,2455.0,0.1199256554245948
0.0,2456.0,0.119855023920536
0.0,2457.0,0.1198180541396141
0.0,2458.0,0.1197196990251541
0.0,2459.0,0.1196275800466537
0.0,2460.0,0.1195487976074218
0.0,2461.0,0.1195321008563041
0.0,2462.0,0.1194322556257247
0.0,2463.0,0.1193623766303062
0.0,2464.0,0.1193699911236763
0.0,2465.0,0.1192551925778389
0.0,2466.0,0.1191573813557624
0.0,2467.0,0.119116686284542
0.0,2468.0,0.1191159039735794
0.0,2469.0,0.1190557330846786
0.0,2470.0,0.1189435124397277
0.0,2471.0,0.1190039739012718
0.0,2472.0,0.1188511177897453
0.0,2473.0,0.1187972649931907
0.0,2474.0,0.1187690868973732
0.0,2475.0,0.1187296584248542
0.0,2476.0,0.1184997782111167
0.0,2477.0,0.1185126230120658
0.0,2478.0,0.1184978932142257
0.0,2479.0,0.1183222234249115
0.0,2480.0,0.1183944046497345
0.0,2481.0,0.1183785125613212
0.0,2482.0,0.1182547956705093
0.0,2483.0,0.118217721581459
0.0,2484.0,0.1180610507726669
0.0,2485.0,0.1181270405650138
0.0,2486.0,0.1181422173976898
0.0,2487.0,0.1179539039731025
0.0,2488.0,0.1181154027581214
0.0,2489.0,0.1178096234798431
0.0,2490.0,0.1178760081529617
0.0,2491.0,0.1178176030516624
0.0,2492.0,0.1176627501845359
0.0,2493.0,0.1178212091326713
0.0,2494.0,0.1175256669521331
0.0,2495.0,0.117596261203289
0.0,2496.0,0.1175019219517707
0.0,2497.0,0.1173688024282455
0.0,2498.0,0.1172712445259094
0.0,2499.0,0.1173632815480232
0.0,2500.0,0.1171190962195396
0.0,2501.0,0.1171312928199768
0.0,2502.0,0.1170827448368072
0.0,2503.0,0.1169901266694068
0.0,2504.0,0.1168902441859245
0.0,2505.0,0.1169326603412628
0.0,2506.0,0.1169605627655983
0.0,2507.0,0.1167678982019424
0.0,2508.0,0.1166994124650955
0.0,2509.0,0.11665890365839
0.0,2510.0,0.1166120693087577
0.0,2511.0,0.1165277734398841
0.0,2512.0,0.1165430545806884
0.0,2513.0,0.1164161264896392
0.0,2514.0,0.1163699999451637
0.0,2515.0,0.1163632199168205
0.0,2516.0,0.1162961646914482
0.0,2517.0,0.1162244230508804
0.0,2518.0,0.1160796582698822
0.0,2519.0,0.116147331893444
0.0,2520.0,0.116024300456047
0.0,2521.0,0.1158797889947891
0.0,2522.0,0.1158313080668449
0.0,2523.0,0.1157874763011932
0.0,2524.0,0.1158224865794181
0.0,2525.0,0.1157834827899932
0.0,2526.0,0.115733653306961
0.0,2527.0,0.1155851259827613
0.0,2528.0,0.1155199185013771
0.0,2529.0,0.1156102567911148
0.0,2530.0,0.1153134629130363
0.0,2531.0,0.1154273152351379
0.0,2532.0,0.1151737719774246
0.0,2533.0,0.1152060404419899
0.0,2534.0,0.1153058037161827
0.0,2535.0,0.1153190955519676
0.0,2536.0,0.1150323972105979
0.0,2537.0,0.115090325474739
0.0,2538.0,0.1150692775845527
0.0,2539.0,0.114866018295288
0.0,2540.0,0.1148878782987594
0.0,2541.0,0.1147446036338806
0.0,2542.0,0.114807479083538
0.0,2543.0,0.1146746277809143
0.0,2544.0,0.1145460978150367
0.0,2545.0,0.1147133186459541
0.0,2546.0,0.1145193427801132
0.0,2547.0,0.1144436076283454
0.0,2548.0,0.114413671195507
0.0,2549.0,0.1142513677477836
0.0,2550.0,0.1142777428030967
0.0,2551.0,0.1142337098717689
0.0,2552.0,0.1141659989953041
0.0,2553.0,0.1141142472624778
0.0,2554.0,0.1137999966740608
0.0,2555.0,0.1141536310315132
0.0,2556.0,0.1140073239803314
0.0,2557.0,0.1138146966695785
0.0,2558.0,0.1136701926589012
0.0,2559.0,0.1137376874685287
0.0,2560.0,0.113709881901741
0.0,2561.0,0.1134778782725334
0.0,2562.0,0.1134154573082923
0.0,2563.0,0.1134101003408432
0.0,2564.0,0.1135033592581749
0.0,2565.0,0.1132984459400177
0.0,2566.0,0.113254390656948
0.0,2567.0,0.1132128313183784
0.0,2568.0,0.1132488027215004
0.0,2569.0,0.1131158322095871
0.0,2570.0,0.1130427345633506
0.0,2571.0,0.1130340099334716
0.0,2572.0,0.1129470542073249
0.0,2573.0,0.1128435209393501
0.0,2574.0,0.113017588853836
0.0,2575.0,0.1127908751368522
0.0,2576.0,0.1126484125852584
0.0,2577.0,0.1128254309296608
0.0,2578.0,0.112688809633255
0.0,2579.0,0.1125373616814613
0.0,2580.0,0.1124107837677002
0.0,2581.0,0.112376220524311
0.0,2582.0,0.1123709827661514
0.0,2583.0,0.1124193370342254
0.0,2584.0,0.1123552024364471
0.0,2585.0,0.112221360206604
0.0,2586.0,0.1121128723025322
0.0,2587.0,0.1121396049857139
0.0,2588.0,0.1119830384850502
0.0,2589.0,0.1119105294346809
0.0,2590.0,0.1119850352406501
0.0,2591.0,0.1118925213813781
0.0,2592.0,0.1117818504571914
0.0,2593.0,0.1117666959762573
0.0,2594.0,0.1117589399218559
0.0,2595.0,0.1116640493273735
0.0,2596.0,0.1116482019424438
0.0,2597.0,0.111586257815361
0.0,2598.0,0.1115637645125389
0.0,2599.0,0.1114399433135986
0.0,2600.0,0.111236423254013
0.0,2601.0,0.1112359389662742
0.0,2602.0,0.1112375035881996
0.0,2603.0,0.1110463440418243
0.0,2604.0,0.1112324073910713
0.0,2605.0,0.1112200021743774
0.0,2606.0,0.1110110655426979
0.0,2607.0,0.1109660342335701
0.0,2608.0,0.1109326854348182
0.0,2609.0,0.1108770370483398
0.0,2610.0,0.1108327955007553
0.0,2611.0,0.1107114106416702
0.0,2612.0,0.1104786619544029
0.0,2613.0,0.1107001081109047
0.0,2614.0,0.110594667494297
0.0,2615.0,0.1105896383523941
0.0,2616.0,0.1103551909327507
0.0,2617.0,0.1103060692548751
0.0,2618.0,0.1102518066763877
0.0,2619.0,0.1102780848741531
0.0,2620.0,0.1101156249642372
0.0,2621.0,0.1100803166627883
0.0,2622.0,0.1100427731871604
0.0,2623.0,0.1100116595625877
0.0,2624.0,0.1099884882569313
0.0,2625.0,0.1099641323089599
0.0,2626.0,0.1098517179489135
0.0,2627.0,0.1096677929162979
0.0,2628.0,0.1096443533897399
0.0,2629.0,0.1096163615584373
0.0,2630.0,0.1096910610795021
0.0,2631.0,0.1096954196691513
0.0,2632.0,0.1096013858914375
0.0,2633.0,0.1094898134469986
0.0,2634.0,0.1094420477747917
0.0,2635.0,0.1094244718551635
0.0,2636.0,0.1092757955193519
0.0,2637.0,0.1091558337211608
0.0,2638.0,0.1092562228441238
0.0,2639.0,0.1090996637940406
0.0,2640.0,0.109168566763401
0.0,2641.0,0.1089691817760467
0.0,2642.0,0.1089355498552322
0.0,2643.0,0.1088477820158004
0.0,2644.0,0.1087861806154251
0.0,2645.0,0.108846478164196
0.0,2646.0,0.108754314482212
0.0,2647.0,0.1085788086056709
0.0,2648.0,0.1085878610610961
0.0,2649.0,0.1085624024271965
0.0,2650.0,0.1084643974900245
0.0,2651.0,0.1084146052598953
0.0,2652.0,0.1083908230066299
0.0,2653.0,0.1083723530173301
0.0,2654.0,0.1083279252052307
0.0,2655.0,0.108223557472229
0.0,2656.0,0.1082027778029441
0.0,2657.0,0.1080958694219589
0.0,2658.0,0.1081032902002334
0.0,2659.0,0.1079430356621742
0.0,2660.0,0.1078755185008049
0.0,2661.0,0.1078765615820884
0.0,2662.0,0.1077632904052734
0.0,2663.0,0.1077558323740959
0.0,2664.0,0.1076263189315795
0.0,2665.0,0.1075616925954818
0.0,2666.0,0.1075783520936966
0.0,2667.0,0.1074833944439888
0.0,2668.0,0.1075353771448135
0.0,2669.0,0.1072877645492553
0.0,2670.0,0.1073346957564354
0.0,2671.0,0.1074070557951927
0.0,2672.0,0.1072635352611541
0.0,2673.0,0.1071520820260047
0.0,2674.0,0.1069661676883697
0.0,2675.0,0.107027843594551
0.0,2676.0,0.1071241199970245
0.0,2677.0,0.1068839281797409
0.0,2678.0,0.1068804934620857
0.0,2679.0,0.1068047285079956
0.0,2680.0,0.1068914160132408
0.0,2681.0,0.1067296415567398
0.0,2682.0,0.1066460683941841
0.0,2683.0,0.1065294742584228
0.0,2684.0,0.1064969226717948
0.0,2685.0,0.1064943075180053
0.0,2686.0,0.1064234524965286
0.0,2687.0,0.1063457205891609
0.0,2688.0,0.106432057917118
0.0,2689.0,0.1062710061669349
0.0,2690.0,0.1062086522579193
0.0,2691.0,0.1062565445899963
0.0,2692.0,0.1061251237988472
0.0,2693.0,0.1060078218579292
0.0,2694.0,0.1059155240654945
0.0,2695.0,0.1058592200279235
0.0,2696.0,0.1059209704399108
0.0,2697.0,0.1058738827705383
0.0,2698.0,0.1060013845562934
0.0,2699.0,0.1056731194257736
0.0,2700.0,0.1056680828332901
0.0,2701.0,0.1054842770099639
0.0,2702.0,0.1056056916713714
0.0,2703.0,0.105530560016632
0.0,2704.0,0.1054652407765388
0.0,2705.0,0.1054397895932197
0.0,2706.0,0.1053745150566101
0.0,2707.0,0.1053646653890609
0.0,2708.0,0.1052107438445091
0.0,2709.0,0.1051075905561447
0.0,2710.0,0.1051715314388275
0.0,2711.0,0.1050442606210708
0.0,2712.0,0.1050377041101455
0.0,2713.0,0.1049950495362281
0.0,2714.0,0.1048801094293594
0.0,2715.0,0.1047971993684768
0.0,2716.0,0.1046964451670646
0.0,2717.0,0.1047975271940231
0.0,2718.0,0.104583166539669
0.0,2719.0,0.1047246530652046
0.0,2720.0,0.1045599281787872
0.0,2721.0,0.1046141386032104
0.0,2722.0,0.1044362857937812
0.0,2723.0,0.1043986156582832
0.0,2724.0,0.1043224334716796
0.0,2725.0,0.1042428389191627
0.0,2726.0,0.1041962355375289
0.0,2727.0,0.1041542664170265
0.0,2728.0,0.1040837541222572
0.0,2729.0,0.1041146218776702
0.0,2730.0,0.1040420979261398
0.0,2731.0,0.1039071008563041
0.0,2732.0,0.1037788316607475
0.0,2733.0,0.1038339287042617
0.0,2734.0,0.1037275791168212
0.0,2735.0,0.103679783642292
0.0,2736.0,0.1036091372370719
0.0,2737.0,0.1035686358809471
0.0,2738.0,0.103595994412899
0.0,2739.0,0.1034165173768997
0.0,2740.0,0.1035931631922721
0.0,2741.0,0.1033101677894592
0.0,2742.0,0.1033282503485679
0.0,2743.0,0.1033140644431114
0.0,2744.0,0.1031973958015441
0.0,2745.0,0.1031081900000572
0.0,2746.0,0.1031218618154525
0.0,2747.0,0.1030972823500633
0.0,2748.0,0.1030143350362777
0.0,2749.0,0.1030625104904174
0.0,2750.0,0.1028591394424438
0.0,2751.0,0.1028030663728714
0.0,2752.0,0.1029491499066352
0.0,2753.0,0.1027293503284454
0.0,2754.0,0.1026891469955444
0.0,2755.0,0.1025527492165565
0.0,2756.0,0.1025784760713577
0.0,2757.0,0.1024942994117736
0.0,2758.0,0.102536454796791
0.0,2759.0,0.1025116220116615
0.0,2760.0,0.1023715436458587
0.0,2761.0,0.1023394465446472
0.0,2762.0,0.1022825837135315
0.0,2763.0,0.102271668612957
0.0,2764.0,0.1020287275314331
0.0,2765.0,0.1020449474453926
0.0,2766.0,0.1019860878586769
0.0,2767.0,0.1019560992717742
0.0,2768.0,0.1019322276115417
0.0,2769.0,0.1018521040678024
0.0,2770.0,0.1017306745052337
0.0,2771.0,0.1017706990242004
0.0,2772.0,0.1017461568117141
0.0,2773.0,0.101590484380722
0.0,2774.0,0.101523146033287
0.0,2775.0,0.1016001403331756
0.0,2776.0,0.1013954207301139
0.0,2777.0,0.101445235311985
0.0,2778.0,0.1014203429222107
0.0,2779.0,0.1013217940926551
0.0,2780.0,0.1012607812881469
0.0,2781.0,0.1012125015258789
0.0,2782.0,0.1011567190289497
0.0,2783.0,0.1011450886726379
0.0,2784.0,0.1012303978204727
0.0,2785.0,0.1009975969791412
0.0,2786.0,0.1008722111582756
0.0,2787.0,0.1009216904640197
0.0,2788.0,0.1008986160159111
0.0,2789.0,0.1007866188883781
0.0,2790.0,0.1008297279477119
0.0,2791.0,0.1007232517004013
0.0,2792.0,0.1005351543426513
0.0,2793.0,0.1006427109241485
0.0,2794.0,0.1005872786045074
0.0,2795.0,0.1005164757370948
0.0,2796.0,0.1004949659109115
0.0,2797.0,0.100403606891632
0.0,2798.0,0.1002845764160156
0.0,2799.0,0.1002734377980232
0.0,2800.0,0.1002400070428848
0.0,2801.0,0.1000328660011291
0.0,2802.0,0.1000707000494003
0.0,2803.0,0.1001140102744102
0.0,2804.0,0.0999719202518463
0.0,2805.0,0.0997892096638679
0.0,2806.0,0.0998387783765792
0.0,2807.0,0.0999361872673034
0.0,2808.0,0.0999080464243888
0.0,2809.0,0.0997326299548149
0.0,2810.0,0.0997284352779388
0.0,2811.0,0.0996191501617431
0.0,2812.0,0.0995902419090271
0.0,2813.0,0.0994056761264801
0.0,2814.0,0.0993390455842018
0.0,2815.0,0.0992855876684188
0.0,2816.0,0.0993063747882843
0.0,2817.0,0.0993044227361679
0.0,2818.0,0.0992087423801422
0.0,2819.0,0.0991973876953125
0.0,2820.0,0.0991782769560813
0.0,2821.0,0.0991222038865089
0.0,2822.0,0.0990145504474639
0.0,2823.0,0.0989546254277229
0.0,2824.0,0.0987789705395698
0.0,2825.0,0.0987231582403183
0.0,2826.0,0.0989396199584007
0.0,2827.0,0.0987987294793129
0.0,2828.0,0.0985924154520034
0.0,2829.0,0.0986674651503562
0.0,2830.0,0.0985541865229606
0.0,2831.0,0.0984624251723289
0.0,2832.0,0.0984459668397903
0.0,2833.0,0.098576471209526
0.0,2834.0,0.0984372347593307
0.0,2835.0,0.0982922166585922
0.0,2836.0,0.0982945561408996
0.0,2837.0,0.0981513783335685
0.0,2838.0,0.098270297050476
0.0,2839.0,0.0981349050998687
0.0,2840.0,0.0980283841490745
0.0,2841.0,0.0979856923222541
0.0,2842.0,0.0979952663183212
0.0,2843.0,0.0978887528181076
0.0,2844.0,0.0979506373405456
0.0,2845.0,0.0978121235966682
0.0,2846.0,0.0977042987942695
0.0,2847.0,0.0977594032883644
0.0,2848.0,0.0976032391190528
0.0,2849.0,0.0976167470216751
0.0,2850.0,0.0975236967206001
0.0,2851.0,0.0974587053060531
0.0,2852.0,0.0974166169762611
0.0,2853.0,0.097438246011734
0.0,2854.0,0.0973342806100845
0.0,2855.0,0.0972724631428718
0.0,2856.0,0.0972081646323204
0.0,2857.0,0.097067967057228
0.0,2858.0,0.0971161723136901
0.0,2859.0,0.0970182791352272
0.0,2860.0,0.0970121249556541
0.0,2861.0,0.0968813374638557
0.0,2862.0,0.096953310072422
0.0,2863.0,0.0968686118721962
0.0,2864.0,0.0968445315957069
0.0,2865.0,0.0968731269240379
0.0,2866.0,0.0967484414577484
0.0,2867.0,0.0966678783297538
0.0,2868.0,0.0965421944856643
0.0,2869.0,0.0965606048703193
0.0,2870.0,0.0964797735214233
0.0,2871.0,0.0963780358433723
0.0,2872.0,0.0964613854885101
0.0,2873.0,0.0965036302804946
0.0,2874.0,0.0962561219930648
0.0,2875.0,0.0961709842085838
0.0,2876.0,0.0961842238903045
0.0,2877.0,0.0961903035640716
0.0,2878.0,0.0960648879408836
0.0,2879.0,0.0960749164223671
0.0,2880.0,0.0960171148180961
0.0,2881.0,0.0960022285580635
0.0,2882.0,0.0958935096859932
0.0,2883.0,0.0957692638039588
0.0,2884.0,0.0957886055111885
0.0,2885.0,0.095774732530117
0.0,2886.0,0.0956216901540756
0.0,2887.0,0.0956653356552124
0.0,2888.0,0.0955367535352706
0.0,2889.0,0.0955928862094879
0.0,2890.0,0.0954867154359817
0.0,2891.0,0.0953664556145668
0.0,2892.0,0.0953670740127563
0.0,2893.0,0.095283955335617
0.0,2894.0,0.0952791720628738
0.0,2895.0,0.0952734798192977
0.0,2896.0,0.0953157767653465
0.0,2897.0,0.0951275080442428
0.0,2898.0,0.0951012894511222
0.0,2899.0,0.0950912088155746
0.0,2900.0,0.0949681922793388
0.0,2901.0,0.0948157235980033
0.0,2902.0,0.0948308333754539
0.0,2903.0,0.094837836921215
0.0,2904.0,0.0946881547570228
0.0,2905.0,0.0946583375334739
0.0,2906.0,0.0946022570133209
0.0,2907.0,0.094619795680046
0.0,2908.0,0.0946775078773498
0.0,2909.0,0.0945300459861755
0.0,2910.0,0.0943823456764221
0.0,2911.0,0.0942594856023788
0.0,2912.0,0.0943262726068496
0.0,2913.0,0.0943443179130554
0.0,2914.0,0.0942006260156631
0.0,2915.0,0.0940965414047241
0.0,2916.0,0.0941245853900909
0.0,2917.0,0.0940995812416076
0.0,2918.0,0.0940917357802391
0.0,2919.0,0.093897134065628
0.0,2920.0,0.0939329490065574
0.0,2921.0,0.093915544450283
0.0,2922.0,0.0938358753919601
0.0,2923.0,0.0937522426247596
0.0,2924.0,0.0936958044767379
0.0,2925.0,0.0936482027173042
0.0,2926.0,0.0936211720108985
0.0,2927.0,0.0935041308403015
0.0,2928.0,0.093450903892517
0.0,2929.0,0.0934502780437469
0.0,2930.0,0.0934701785445213
0.0,2931.0,0.0933034047484397
0.0,2932.0,0.0934082865715026
0.0,2933.0,0.0932872369885444
0.0,2934.0,0.0932034626603126
0.0,2935.0,0.093203879892826
0.0,2936.0,0.0931665077805519
0.0,2937.0,0.0931254997849464
0.0,2938.0,0.0931533351540565
0.0,2939.0,0.0928694307804107
0.0,2940.0,0.0928907543420791
0.0,2941.0,0.092978186905384
0.0,2942.0,0.0928163677453994
0.0,2943.0,0.0927110239863395
0.0,2944.0,0.092671975493431
0.0,2945.0,0.0927262157201767
0.0,2946.0,0.0926022231578826
0.0,2947.0,0.0925266817212104
0.0,2948.0,0.0925761610269546
0.0,2949.0,0.0924973562359809
0.0,2950.0,0.092456579208374
0.0,2951.0,0.0924558565020561
0.0,2952.0,0.0923859775066375
0.0,2953.0,0.0922277867794036
0.0,2954.0,0.0922799333930015
0.0,2955.0,0.0921685546636581
0.0,2956.0,0.0921873599290847
0.0,2957.0,0.0920632854104042
0.0,2958.0,0.0921160131692886
0.0,2959.0,0.0919690877199173
0.0,2960.0,0.0919520929455757
0.0,2961.0,0.0918390750885009
0.0,2962.0,0.0918257310986518
0.0,2963.0,0.0917896851897239
0.0,2964.0,0.091753177344799
0.0,2965.0,0.09153663367033
0.0,2966.0,0.0916797816753387
0.0,2967.0,0.0915743112564086
0.0,2968.0,0.0914813205599784
0.0,2969.0,0.0914845168590545
0.0,2970.0,0.0914306342601776
0.0,2971.0,0.0913527086377143
0.0,2972.0,0.0912545621395111
0.0,2973.0,0.0913219302892685
0.0,2974.0,0.0911486148834228
0.0,2975.0,0.0911596417427063
0.0,2976.0,0.091238647699356
0.0,2977.0,0.0910962969064712
0.0,2978.0,0.0909580439329147
0.0,2979.0,0.0909225866198539
0.0,2980.0,0.0909581780433654
0.0,2981.0,0.0909508690237999
0.0,2982.0,0.0908345878124237
0.0,2983.0,0.0907963216304779
0.0,2984.0,0.0908138230443
0.0,2985.0,0.0907122567296028
0.0,2986.0,0.0906736254692077
0.0,2987.0,0.0906733274459838
0.0,2988.0,0.0904416516423225
0.0,2989.0,0.0904723778367042
0.0,2990.0,0.0904497876763343
0.0,2991.0,0.0903484150767326
0.0,2992.0,0.0903882756829261
0.0,2993.0,0.0903465375304222
0.0,2994.0,0.0903019830584526
0.0,2995.0,0.0901952311396598
0.0,2996.0,0.0901009961962699
0.0,2997.0,0.09022206813097
0.0,2998.0,0.0900544226169586
0.0,2999.0,0.0899982005357742
0.0,3000.0,0.0899408161640167
0.0,3001.0,0.0899132639169693
0.0,3002.0,0.0897635295987129
0.0,3003.0,0.0897654891014099
0.0,3004.0,0.0896896943449974
0.0,3005.0,0.0897406265139579
0.0,3006.0,0.0896567106246948
0.0,3007.0,0.0895063877105712
0.0,3008.0,0.0895673558115959
0.0,3009.0,0.0895665735006332
0.0,3010.0,0.0895019918680191
0.0,3011.0,0.0893363952636718
0.0,3012.0,0.0893035009503364
0.0,3013.0,0.0893229246139526
0.0,3014.0,0.0892727226018905
0.0,3015.0,0.08917897939682
0.0,3016.0,0.0892667323350906
0.0,3017.0,0.0891231745481491
0.0,3018.0,0.0890536829829216
0.0,3019.0,0.0890749245882034
0.0,3020.0,0.0889038816094398
0.0,3021.0,0.0890107825398445
0.0,3022.0,0.0889062359929084
0.0,3023.0,0.0888189449906349
0.0,3024.0,0.0888391435146331
0.0,3025.0,0.0887820795178413
0.0,3026.0,0.0886227786540985
0.0,3027.0,0.0886239558458328
0.0,3028.0,0.0886575654149055
0.0,3029.0,0.0885407924652099
0.0,3030.0,0.0885163247585296
0.0,3031.0,0.0884696841239929
0.0,3032.0,0.0883785337209701
0.0,3033.0,0.0882992148399353
0.0,3034.0,0.0882818549871444
0.0,3035.0,0.0882321372628212
0.0,3036.0,0.0882693380117416
0.0,3037.0,0.0881565287709236
0.0,3038.0,0.0881697684526443
0.0,3039.0,0.0880643874406814
0.0,3040.0,0.0880097672343254
0.0,3041.0,0.0879324823617935
0.0,3042.0,0.0878889337182045
0.0,3043.0,0.0878993198275566
0.0,3044.0,0.0878057926893234
0.0,3045.0,0.0878174677491188
0.0,3046.0,0.0877608656883239
0.0,3047.0,0.087726779282093
0.0,3048.0,0.0876327604055404
0.0,3049.0,0.0876048579812049
0.0,3050.0,0.0875076726078987
0.0,3051.0,0.087350882589817
0.0,3052.0,0.0874380767345428
0.0,3053.0,0.0874746516346931
0.0,3054.0,0.0873000174760818
0.0,3055.0,0.0872654020786285
0.0,3056.0,0.0871244892477989
0.0,3057.0,0.0871811211109161
0.0,3058.0,0.0871888250112533
0.0,3059.0,0.0871331915259361
0.0,3060.0,0.0869861394166946
0.0,3061.0,0.0870641767978668
0.0,3062.0,0.0868940576910972
0.0,3063.0,0.0869184210896492
0.0,3064.0,0.0868433713912963
0.0,3065.0,0.0868364423513412
0.0,3066.0,0.0866841077804565
0.0,3067.0,0.0867489725351333
0.0,3068.0,0.0867481306195259
0.0,3069.0,0.0866158455610275
0.0,3070.0,0.0865818262100219
0.0,3071.0,0.0866471454501152
0.0,3072.0,0.0864620134234428
0.0,3073.0,0.086476631462574
0.0,3074.0,0.0863751694560051
0.0,3075.0,0.0863673016428947
0.0,3076.0,0.0863092392683029
0.0,3077.0,0.0862668007612228
0.0,3078.0,0.0862173587083816
0.0,3079.0,0.0861352905631065
0.0,3080.0,0.0860805287957191
0.0,3081.0,0.0861376076936721
0.0,3082.0,0.0860723853111267
0.0,3083.0,0.0860667452216148
0.0,3084.0,0.0859911814332008
0.0,3085.0,0.0858739092946052
0.0,3086.0,0.0858388915657997
0.0,3087.0,0.0857358574867248
0.0,3088.0,0.085754670202732
0.0,3089.0,0.0856665894389152
0.0,3090.0,0.0855946466326713
0.0,3091.0,0.0855491757392883
0.0,3092.0,0.0855037495493888
0.0,3093.0,0.0854582637548446
0.0,3094.0,0.0854027494788169
0.0,3095.0,0.0853579267859458
0.0,3096.0,0.0853763148188591
0.0,3097.0,0.0853011608123779
0.0,3098.0,0.0853192657232284
0.0,3099.0,0.0852814838290214
0.0,3100.0,0.0851165056228637
0.0,3101.0,0.0851917937397956
0.0,3102.0,0.0849619433283805
0.0,3103.0,0.0849385559558868
0.0,3104.0,0.0849517062306404
0.0,3105.0,0.0848749727010726
0.0,3106.0,0.0848834514617919
0.0,3107.0,0.0848366469144821
0.0,3108.0,0.0847509056329727
0.0,3109.0,0.084720455110073
0.0,3110.0,0.0846639797091484
0.0,3111.0,0.0846762433648109
0.0,3112.0,0.0845927447080612
0.0,3113.0,0.0845644101500511
0.0,3114.0,0.0845680236816406
0.0,3115.0,0.0844947174191474
0.0,3116.0,0.084414355456829
0.0,3117.0,0.0844416916370391
0.0,3118.0,0.0842521637678146
0.0,3119.0,0.0842499434947967
0.0,3120.0,0.0842218920588493
0.0,3121.0,0.0841916725039482
0.0,3122.0,0.0841119289398193
0.0,3123.0,0.0840709507465362
0.0,3124.0,0.0840168818831443
0.0,3125.0,0.0840109065175056
0.0,3126.0,0.0838955044746398
0.0,3127.0,0.0838681757450103
0.0,3128.0,0.083840288221836
0.0,3129.0,0.083808846771717
0.0,3130.0,0.0837699770927429
0.0,3131.0,0.0836545526981353
0.0,3132.0,0.0836093351244926
0.0,3133.0,0.0836009010672569
0.0,3134.0,0.0836123824119567
0.0,3135.0,0.0834853127598762
0.0,3136.0,0.083511859178543
0.0,3137.0,0.0834181457757949
0.0,3138.0,0.0833568349480629
0.0,3139.0,0.08329788595438
0.0,3140.0,0.0833517014980316
0.0,3141.0,0.0831892490386962
0.0,3142.0,0.0832311660051345
0.0,3143.0,0.0831338465213775
0.0,3144.0,0.0830729752779007
0.0,3145.0,0.0830448418855667
0.0,3146.0,0.0829996690154075
0.0,3147.0,0.0830139964818954
0.0,3148.0,0.0829072147607803
0.0,3149.0,0.0829559117555618
0.0,3150.0,0.0829131156206131
0.0,3151.0,0.0827341824769973
0.0,3152.0,0.0827750638127327
0.0,3153.0,0.0826646462082862
0.0,3154.0,0.082682304084301
0.0,3155.0,0.082692265510559
0.0,3156.0,0.0825345367193222
0.0,3157.0,0.0825590267777443
0.0,3158.0,0.0825467854738235
0.0,3159.0,0.0824150443077087
0.0,3160.0,0.0823022872209549
0.0,3161.0,0.0823506042361259
0.0,3162.0,0.082231618463993
0.0,3163.0,0.0822755470871925
0.0,3164.0,0.0821436941623687
0.0,3165.0,0.082170270383358
0.0,3166.0,0.0820656791329383
0.0,3167.0,0.0820999890565872
0.0,3168.0,0.0819952860474586
0.0,3169.0,0.0819715410470962
0.0,3170.0,0.0819901227951049
0.0,3171.0,0.081860214471817
0.0,3172.0,0.081871747970581
0.0,3173.0,0.0818848758935928
0.0,3174.0,0.0817817747592926
0.0,3175.0,0.0817638114094734
0.0,3176.0,0.0815671160817146
0.0,3177.0,0.08162522315979
0.0,3178.0,0.0815961509943008
0.0,3179.0,0.0814997777342796
0.0,3180.0,0.0815214961767196
0.0,3181.0,0.0814885795116424
0.0,3182.0,0.0813040360808372
0.0,3183.0,0.0813996270298957
0.0,3184.0,0.0813976153731346
0.0,3185.0,0.0812643840909004
0.0,3186.0,0.0812269896268844
0.0,3187.0,0.0811649113893508
0.0,3188.0,0.0810950323939323
0.0,3189.0,0.0810919776558876
0.0,3190.0,0.0809843018651008
0.0,3191.0,0.0809908285737037
0.0,3192.0,0.0809949114918708
0.0,3193.0,0.0807883366942405
0.0,3194.0,0.0808809027075767
0.0,3195.0,0.0807876363396644
0.0,3196.0,0.0808033049106597
0.0,3197.0,0.0807065740227699
0.0,3198.0,0.0807181671261787
0.0,3199.0,0.0805903300642967
0.0,3200.0,0.0805787146091461
0.0,3201.0,0.0805776417255401
0.0,3202.0,0.0804296880960464
0.0,3203.0,0.0804316997528076
0.0,3204.0,0.080354630947113
0.0,3205.0,0.0802358388900756
0.0,3206.0,0.0803532674908638
0.0,3207.0,0.0802627280354499
0.0,3208.0,0.0801938772201538
0.0,3209.0,0.0801595151424408
0.0,3210.0,0.0801816582679748
0.0,3211.0,0.080084390938282
0.0,3212.0,0.0800467431545257
0.0,3213.0,0.0800075456500053
0.0,3214.0,0.0799264460802078
0.0,3215.0,0.079823799431324
0.0,3216.0,0.0798413679003715
0.0,3217.0,0.0798429250717163
0.0,3218.0,0.0797409787774086
0.0,3219.0,0.0796898379921913
0.0,3220.0,0.0796727240085601
0.0,3221.0,0.0796523988246917
0.0,3222.0,0.079629860818386
0.0,3223.0,0.0795831084251403
0.0,3224.0,0.0795579850673675
0.0,3225.0,0.0794421434402465
0.0,3226.0,0.0795034617185592
0.0,3227.0,0.0794809535145759
0.0,3228.0,0.0794124454259872
0.0,3229.0,0.079307921230793
0.0,3230.0,0.0792577639222145
0.0,3231.0,0.0792070031166076
0.0,3232.0,0.079107217490673
0.0,3233.0,0.0791731998324394
0.0,3234.0,0.0790497660636901
0.0,3235.0,0.0790711119771003
0.0,3236.0,0.0789000019431114
0.0,3237.0,0.0789650455117225
0.0,3238.0,0.0789867043495178
0.0,3239.0,0.078826367855072
0.0,3240.0,0.0788283124566078
0.0,3241.0,0.0787896364927291
0.0,3242.0,0.0787131860852241
0.0,3243.0,0.0787008851766586
0.0,3244.0,0.0786435529589653
0.0,3245.0,0.0785936340689659
0.0,3246.0,0.0785345137119293
0.0,3247.0,0.0785904824733734
0.0,3248.0,0.078414998948574
0.0,3249.0,0.078346773982048
0.0,3250.0,0.0783630385994911
0.0,3251.0,0.0783995687961578
0.0,3252.0,0.0781966894865036
0.0,3253.0,0.0782292559742927
0.0,3254.0,0.078162558376789
0.0,3255.0,0.0781600326299667
0.0,3256.0,0.0781171843409538
0.0,3257.0,0.078079342842102
0.0,3258.0,0.0780334845185279
0.0,3259.0,0.0779788941144943
0.0,3260.0,0.0778943076729774
0.0,3261.0,0.0778412669897079
0.0,3262.0,0.0778638273477554
0.0,3263.0,0.077760100364685
0.0,3264.0,0.0777395814657211
0.0,3265.0,0.0777395218610763
0.0,3266.0,0.0776798278093338
0.0,3267.0,0.0776228979229927
0.0,3268.0,0.0775201693177223
0.0,3269.0,0.0775600671768188
0.0,3270.0,0.0774915441870689
0.0,3271.0,0.0774637386202812
0.0,3272.0,0.0774213373661041
0.0,3273.0,0.0773198828101158
0.0,3274.0,0.0773466974496841
0.0,3275.0,0.0772467628121376
0.0,3276.0,0.0772111415863037
0.0,3277.0,0.0771489068865776
0.0,3278.0,0.0771332457661628
0.0,3279.0,0.0770518258213996
0.0,3280.0,0.0770357549190521
0.0,3281.0,0.0770441368222236
0.0,3282.0,0.0769278332591056
0.0,3283.0,0.0768982544541359
0.0,3284.0,0.0768587887287139
0.0,3285.0,0.0768944174051284
0.0,3286.0,0.076844573020935
0.0,3287.0,0.076747752726078
0.0,3288.0,0.0767076462507247
0.0,3289.0,0.0766665935516357
0.0,3290.0,0.076686792075634
0.0,3291.0,0.0766142979264259
0.0,3292.0,0.0766078308224678
0.0,3293.0,0.0765125080943107
0.0,3294.0,0.076471596956253
0.0,3295.0,0.0764185935258865
0.0,3296.0,0.0763756036758422
0.0,3297.0,0.0762757360935211
0.0,3298.0,0.0762679129838943
0.0,3299.0,0.0762537494301796
0.0,3300.0,0.0762197822332382
0.0,3301.0,0.0761249065399169
0.0,3302.0,0.0761200562119484
0.0,3303.0,0.0761821269989013
0.0,3304.0,0.075961984694004
0.0,3305.0,0.0760276392102241
0.0,3306.0,0.0759754180908203
0.0,3307.0,0.0759240090847015
0.0,3308.0,0.0758723318576812
0.0,3309.0,0.0757923349738121
0.0,3310.0,0.0757987052202224
0.0,3311.0,0.0758057311177253
0.0,3312.0,0.0756612494587898
0.0,3313.0,0.075655996799469
0.0,3314.0,0.0756432265043258
0.0,3315.0,0.0755041018128395
0.0,3316.0,0.0754507258534431
0.0,3317.0,0.0755072832107544
0.0,3318.0,0.0754525512456893
0.0,3319.0,0.0755107402801513
0.0,3320.0,0.0753619596362114
0.0,3321.0,0.0753413066267967
0.0,3322.0,0.0752615258097648
0.0,3323.0,0.0752360522747039
0.0,3324.0,0.0750831440091133
0.0,3325.0,0.0752218589186668
0.0,3326.0,0.0751582607626915
0.0,3327.0,0.075090505182743
0.0,3328.0,0.0750753059983253
0.0,3329.0,0.0749149397015571
0.0,3330.0,0.0749605596065521
0.0,3331.0,0.0748116225004196
0.0,3332.0,0.0748737752437591
0.0,3333.0,0.0748650953173637
0.0,3334.0,0.0747962296009063
0.0,3335.0,0.0747298374772071
0.0,3336.0,0.0746711045503616
0.0,3337.0,0.0746540054678917
0.0,3338.0,0.0746337175369262
0.0,3339.0,0.0745122283697128
0.0,3340.0,0.0745628476142883
0.0,3341.0,0.0744289755821228
0.0,3342.0,0.0744887962937355
0.0,3343.0,0.0743404701352119
0.0,3344.0,0.0743385404348373
0.0,3345.0,0.0743651092052459
0.0,3346.0,0.0743576362729072
0.0,3347.0,0.0742151364684104
0.0,3348.0,0.0741800516843795
0.0,3349.0,0.0741551145911216
0.0,3350.0,0.0740906223654747
0.0,3351.0,0.0739897862076759
0.0,3352.0,0.0740835815668106
0.0,3353.0,0.0739418193697929
0.0,3354.0,0.0738972574472427
0.0,3355.0,0.0739041417837143
0.0,3356.0,0.073829285800457
0.0,3357.0,0.0738721787929534
0.0,3358.0,0.0738222077488899
0.0,3359.0,0.0737232863903045
0.0,3360.0,0.07362000644207
0.0,3361.0,0.0736796632409095
0.0,3362.0,0.0736132487654686
0.0,3363.0,0.0735980346798896
0.0,3364.0,0.0734506696462631
0.0,3365.0,0.0735175386071205
0.0,3366.0,0.0733492672443389
0.0,3367.0,0.0733336508274078
0.0,3368.0,0.0732676535844802
0.0,3369.0,0.0733022093772888
0.0,3370.0,0.0732183456420898
0.0,3371.0,0.0732614398002624
0.0,3372.0,0.0731850415468216
0.0,3373.0,0.0731143653392791
0.0,3374.0,0.0730523839592933
0.0,3375.0,0.0730413198471069
0.0,3376.0,0.0730661377310752
0.0,3377.0,0.0729303434491157
0.0,3378.0,0.0729492157697677
0.0,3379.0,0.0728786960244178
0.0,3380.0,0.0728629305958747
0.0,3381.0,0.0727999061346054
0.0,3382.0,0.0727796182036399
0.0,3383.0,0.0726437866687774
0.0,3384.0,0.0727368593215942
0.0,3385.0,0.0726150423288345
0.0,3386.0,0.0726268216967582
0.0,3387.0,0.0726079791784286
0.0,3388.0,0.07249116897583
0.0,3389.0,0.0724836662411689
0.0,3390.0,0.072447195649147
0.0,3391.0,0.0723879486322403
0.0,3392.0,0.0723955184221267
0.0,3393.0,0.0722657963633537
0.0,3394.0,0.0721945762634277
0.0,3395.0,0.0722029358148574
0.0,3396.0,0.0722476169466972
0.0,3397.0,0.0721110925078392
0.0,3398.0,0.0720759555697441
0.0,3399.0,0.0720487534999847
0.0,3400.0,0.0719652250409126
0.0,3401.0,0.0719439759850502
0.0,3402.0,0.072003960609436
0.0,3403.0,0.0718545317649841
0.0,3404.0,0.0717998594045639
0.0,3405.0,0.0718267485499382
0.0,3406.0,0.0718212127685546
0.0,3407.0,0.0717158839106559
0.0,3408.0,0.0716944336891174
0.0,3409.0,0.0716958791017532
0.0,3410.0,0.0716997161507606
0.0,3411.0,0.0715602487325668
0.0,3412.0,0.0715167373418808
0.0,3413.0,0.0714801922440528
0.0,3414.0,0.0714200511574745
0.0,3415.0,0.0713571012020111
0.0,3416.0,0.0714347064495086
0.0,3417.0,0.0712771117687225
0.0,3418.0,0.0713114961981773
0.0,3419.0,0.0712960138916969
0.0,3420.0,0.0712547898292541
0.0,3421.0,0.0711323767900466
0.0,3422.0,0.0711578428745269
0.0,3423.0,0.0711349993944168
0.0,3424.0,0.0710189864039421
0.0,3425.0,0.0710980743169784
0.0,3426.0,0.0710026249289512
0.0,3427.0,0.070871315896511
0.0,3428.0,0.0708594694733619
0.0,3429.0,0.0708702951669693
0.0,3430.0,0.0708101168274879
0.0,3431.0,0.0707258656620979
0.0,3432.0,0.070691742002964
0.0,3433.0,0.0706409737467765
0.0,3434.0,0.0705778300762176
0.0,3435.0,0.0705853924155235
0.0,3436.0,0.0705450996756553
0.0,3437.0,0.07048349827528
0.0,3438.0,0.0704771801829338
0.0,3439.0,0.0704285576939582
0.0,3440.0,0.0703643858432769
0.0,3441.0,0.0703107416629791
0.0,3442.0,0.0703042969107627
0.0,3443.0,0.070305734872818
0.0,3444.0,0.0703125149011612
0.0,3445.0,0.0702877566218376
0.0,3446.0,0.0701637864112854
0.0,3447.0,0.0701215267181396
0.0,3448.0,0.0699361264705658
0.0,3449.0,0.0699991658329963
0.0,3450.0,0.0699714720249176
0.0,3451.0,0.0700039491057396
0.0,3452.0,0.0699179843068122
0.0,3453.0,0.0699352845549583
0.0,3454.0,0.069914624094963
0.0,3455.0,0.0697481706738472
0.0,3456.0,0.0697170794010162
0.0,3457.0,0.0696795359253883
0.0,3458.0,0.0696595907211303
0.0,3459.0,0.0697041451930999
0.0,3460.0,0.0695757716894149
0.0,3461.0,0.0695508420467376
0.0,3462.0,0.0694987326860427
0.0,3463.0,0.0695431753993034
0.0,3464.0,0.0694859474897384
0.0,3465.0,0.0694566145539283
0.0,3466.0,0.0693924948573112
0.0,3467.0,0.0692122429609298
0.0,3468.0,0.0692252665758133
0.0,3469.0,0.0692912563681602
0.0,3470.0,0.0691434144973754
0.0,3471.0,0.069190889596939
0.0,3472.0,0.0691166967153549
0.0,3473.0,0.0690155997872352
0.0,3474.0,0.0690262839198112
0.0,3475.0,0.0690555423498153
0.0,3476.0,0.0688822269439697
0.0,3477.0,0.0688829645514488
0.0,3478.0,0.0688136592507362
0.0,3479.0,0.0689067766070365
0.0,3480.0,0.068817064166069
0.0,3481.0,0.0688035935163497
0.0,3482.0,0.0686380043625831
0.0,3483.0,0.0687136128544807
0.0,3484.0,0.0686988979578018
0.0,3485.0,0.0686454251408577
0.0,3486.0,0.0685207471251487
0.0,3487.0,0.0685233250260353
0.0,3488.0,0.0685199797153472
0.0,3489.0,0.0684258490800857
0.0,3490.0,0.0684145390987396
0.0,3491.0,0.0684383362531662
0.0,3492.0,0.0682492330670356
0.0,3493.0,0.0682815909385681
0.0,3494.0,0.0682375207543373
0.0,3495.0,0.0682418495416641
0.0,3496.0,0.0682126358151435
0.0,3497.0,0.0681669116020202
0.0,3498.0,0.0681744441390037
0.0,3499.0,0.0679989084601402
0.0,3500.0,0.0679877698421478
0.0,3501.0,0.067985713481903
0.0,3502.0,0.0679660588502883
0.0,3503.0,0.0679171234369278
0.0,3504.0,0.0678762719035148
0.0,3505.0,0.067894235253334
0.0,3506.0,0.067884974181652
0.0,3507.0,0.0677852407097816
0.0,3508.0,0.0677615106105804
0.0,3509.0,0.0676038563251495
0.0,3510.0,0.0677132010459899
0.0,3511.0,0.0675839856266975
0.0,3512.0,0.0675166696310043
0.0,3513.0,0.0675759315490722
0.0,3514.0,0.0674635618925094
0.0,3515.0,0.0674740076065063
0.0,3516.0,0.0674007162451744
0.0,3517.0,0.0673757418990135
0.0,3518.0,0.0673448666930198
0.0,3519.0,0.0673199966549873
0.0,3520.0,0.0672041773796081
0.0,3521.0,0.0672058463096618
0.0,3522.0,0.0671984925866127
0.0,3523.0,0.0671543031930923
0.0,3524.0,0.0671087950468063
0.0,3525.0,0.0670816823840141
0.0,3526.0,0.0670639500021934
0.0,3527.0,0.0670457631349563
0.0,3528.0,0.0669367536902427
0.0,3529.0,0.0669141486287117
0.0,3530.0,0.0669070184230804
0.0,3531.0,0.0668027177453041
0.0,3532.0,0.0667920485138893
0.0,3533.0,0.0667394772171974
0.0,3534.0,0.0666474476456642
0.0,3535.0,0.0666827484965324
0.0,3536.0,0.0666365548968315
0.0,3537.0,0.0665657892823219
0.0,3538.0,0.0665331333875656
0.0,3539.0,0.0665575787425041
0.0,3540.0,0.0665342360734939
0.0,3541.0,0.0665123611688613
0.0,3542.0,0.0664315894246101
0.0,3543.0,0.0664192736148834
0.0,3544.0,0.0663066059350967
0.0,3545.0,0.0662881955504417
0.0,3546.0,0.0663324892520904
0.0,3547.0,0.0662002339959144
0.0,3548.0,0.06616972386837
0.0,3549.0,0.0661373063921928
0.0,3550.0,0.0661585703492164
0.0,3551.0,0.0660621523857116
0.0,3552.0,0.0660091638565063
0.0,3553.0,0.0660268813371658
0.0,3554.0,0.0659782513976097
0.0,3555.0,0.0659096613526344
0.0,3556.0,0.0659348890185356
0.0,3557.0,0.0657839030027389
0.0,3558.0,0.0657602325081825
0.0,3559.0,0.0658258348703384
0.0,3560.0,0.065716378390789
0.0,3561.0,0.0657580122351646
0.0,3562.0,0.0657274574041366
0.0,3563.0,0.0655562356114387
0.0,3564.0,0.0655230730772018
0.0,3565.0,0.0655295103788375
0.0,3566.0,0.065547876060009
0.0,3567.0,0.065540038049221
0.0,3568.0,0.0654458999633789
0.0,3569.0,0.0654247850179672
0.0,3570.0,0.0652921050786972
0.0,3571.0,0.0652971416711807
0.0,3572.0,0.0653410032391548
0.0,3573.0,0.0652631819248199
0.0,3574.0,0.0652461498975753
0.0,3575.0,0.0651265010237693
0.0,3576.0,0.0651194900274276
0.0,3577.0,0.0650534555315971
0.0,3578.0,0.0650552883744239
0.0,3579.0,0.0650254040956497
0.0,3580.0,0.0651209279894828
0.0,3581.0,0.064945288002491
0.0,3582.0,0.064882643520832
0.0,3583.0,0.0648612678050994
0.0,3584.0,0.0647623762488365
0.0,3585.0,0.0646982043981552
0.0,3586.0,0.0647374466061592
0.0,3587.0,0.0647327005863189
0.0,3588.0,0.064590111374855
0.0,3589.0,0.0646255388855934
0.0,3590.0,0.0646877586841583
0.0,3591.0,0.0645102113485336
0.0,3592.0,0.0645221024751663
0.0,3593.0,0.0644590258598327
0.0,3594.0,0.0644169375300407
0.0,3595.0,0.0643904060125351
0.0,3596.0,0.0644143894314765
0.0,3597.0,0.0643991827964782
0.0,3598.0,0.0643598511815071
0.0,3599.0,0.0642979368567466
0.0,3600.0,0.0642156079411506
0.0,3601.0,0.0641930475831031
0.0,3602.0,0.0641599297523498
0.0,3603.0,0.0641142874956131
0.0,3604.0,0.0640790909528732
0.0,3605.0,0.0639815405011177
0.0,3606.0,0.0640083253383636
0.0,3607.0,0.0640033334493637
0.0,3608.0,0.0639825910329818
0.0,3609.0,0.063952200114727
0.0,3610.0,0.0639039352536201
0.0,3611.0,0.0638350248336792
0.0,3612.0,0.0638628154993057
0.0,3613.0,0.0637033432722091
0.0,3614.0,0.0637018978595733
0.0,3615.0,0.0636492595076561
0.0,3616.0,0.0636242032051086
0.0,3617.0,0.0636531934142112
0.0,3618.0,0.0635319352149963
0.0,3619.0,0.0635193288326263
0.0,3620.0,0.0635152086615562
0.0,3621.0,0.0635063275694847
0.0,3622.0,0.0634378790855407
0.0,3623.0,0.0633604377508163
0.0,3624.0,0.0633476823568344
0.0,3625.0,0.0633518993854522
0.0,3626.0,0.0632622316479682
0.0,3627.0,0.0632310584187507
0.0,3628.0,0.0631981045007705
0.0,3629.0,0.0631471127271652
0.0,3630.0,0.0631459206342697
0.0,3631.0,0.0631730705499649
0.0,3632.0,0.063097208738327
0.0,3633.0,0.0630279406905174
0.0,3634.0,0.0628649517893791
0.0,3635.0,0.0629965960979461
0.0,3636.0,0.0629414469003677
0.0,3637.0,0.0628486722707748
0.0,3638.0,0.0628133565187454
0.0,3639.0,0.0628078803420066
0.0,3640.0,0.0627818629145622
0.0,3641.0,0.0627373307943344
0.0,3642.0,0.0627015754580497
0.0,3643.0,0.0627388581633567
0.0,3644.0,0.0626723989844322
0.0,3645.0,0.0626378804445266
0.0,3646.0,0.0626017749309539
0.0,3647.0,0.0625959411263465
0.0,3648.0,0.0626198500394821
0.0,3649.0,0.0624839290976524
0.0,3650.0,0.0623978115618228
0.0,3651.0,0.062346301972866
0.0,3652.0,0.0623698383569717
0.0,3653.0,0.0622715391218662
0.0,3654.0,0.0624083019793033
0.0,3655.0,0.0623058043420314
0.0,3656.0,0.0622733123600482
0.0,3657.0,0.062132827937603
0.0,3658.0,0.0620963796973228
0.0,3659.0,0.0621510446071624
0.0,3660.0,0.0621255859732627
0.0,3661.0,0.062052022665739
0.0,3662.0,0.0620622411370277
0.0,3663.0,0.0620048679411411
0.0,3664.0,0.0619676485657691
0.0,3665.0,0.0618451461195945
0.0,3666.0,0.0618693977594375
0.0,3667.0,0.0618535093963146
0.0,3668.0,0.0617204792797565
0.0,3669.0,0.0617859996855258
0.0,3670.0,0.0617295615375041
0.0,3671.0,0.0616477541625499
0.0,3672.0,0.0616553500294685
0.0,3673.0,0.0616742596030235
0.0,3674.0,0.0616222321987152
0.0,3675.0,0.0614731945097446
0.0,3676.0,0.0615350045263767
0.0,3677.0,0.0614869333803653
0.0,3678.0,0.0614699646830558
0.0,3679.0,0.0613463036715984
0.0,3680.0,0.061369601637125
0.0,3681.0,0.0613788366317749
0.0,3682.0,0.0612623877823352
0.0,3683.0,0.0612624362111091
0.0,3684.0,0.0612785704433918
0.0,3685.0,0.0611905977129936
0.0,3686.0,0.0611922517418861
0.0,3687.0,0.0611597523093223
0.0,3688.0,0.0611211769282817
0.0,3689.0,0.0610203966498374
0.0,3690.0,0.0610213577747345
0.0,3691.0,0.0609684139490127
0.0,3692.0,0.0609575323760509
0.0,3693.0,0.0609267875552177
0.0,3694.0,0.0608961209654808
0.0,3695.0,0.0608702227473259
0.0,3696.0,0.0608392432332038
0.0,3697.0,0.060746680945158
0.0,3698.0,0.0606821440160274
0.0,3699.0,0.0607665032148361
0.0,3700.0,0.0606664679944515
0.0,3701.0,0.0606514997780323
0.0,3702.0,0.0605911277234554
0.0,3703.0,0.0605423003435134
0.0,3704.0,0.060479961335659
0.0,3705.0,0.0604829154908657
0.0,3706.0,0.0604192316532135
0.0,3707.0,0.0604488849639892
0.0,3708.0,0.0604259334504604
0.0,3709.0,0.060401115566492
0.0,3710.0,0.060324840247631
0.0,3711.0,0.060352649539709
0.0,3712.0,0.0602569766342639
0.0,3713.0,0.0602451860904693
0.0,3714.0,0.0601870752871036
0.0,3715.0,0.0601986311376094
0.0,3716.0,0.0601849891245365
0.0,3717.0,0.0600910298526287
0.0,3718.0,0.0600651800632476
0.0,3719.0,0.059982631355524
0.0,3720.0,0.0600209459662437
0.0,3721.0,0.0598999112844467
0.0,3722.0,0.0598987154662609
0.0,3723.0,0.0598100163042545
0.0,3724.0,0.0597690865397453
0.0,3725.0,0.059842187911272
0.0,3726.0,0.0597604997456073
0.0,3727.0,0.0597597509622573
0.0,3728.0,0.0596722923219203
0.0,3729.0,0.0596334412693977
0.0,3730.0,0.0596065931022167
0.0,3731.0,0.0595967024564743
0.0,3732.0,0.0595696419477462
0.0,3733.0,0.0595271959900856
0.0,3734.0,0.0594917424023151
0.0,3735.0,0.0594430677592754
0.0,3736.0,0.0594606585800647
0.0,3737.0,0.0593975745141506
0.0,3738.0,0.0593837350606918
0.0,3739.0,0.0593072399497032
0.0,3740.0,0.059223186224699
0.0,3741.0,0.0592783205211162
0.0,3742.0,0.0592459142208099
0.0,3743.0,0.0592552945017814
0.0,3744.0,0.0591539219021797
0.0,3745.0,0.0591414906084537
0.0,3746.0,0.0591140128672122
0.0,3747.0,0.0590784028172493
0.0,3748.0,0.0590082854032516
0.0,3749.0,0.0589202903211116
0.0,3750.0,0.0589289627969265
0.0,3751.0,0.0588610507547855
0.0,3752.0,0.0589049309492111
0.0,3753.0,0.0589023865759372
0.0,3754.0,0.0588061660528183
0.0,3755.0,0.0587456598877906
0.0,3756.0,0.0587019957602024
0.0,3757.0,0.058815311640501
0.0,3758.0,0.0587936788797378
0.0,3759.0,0.0586452968418598
0.0,3760.0,0.0586026646196842
0.0,3761.0,0.0586540885269641
0.0,3762.0,0.0585825741291046
0.0,3763.0,0.0585030131042003
0.0,3764.0,0.0585200190544128
0.0,3765.0,0.0584241449832916
0.0,3766.0,0.0584991089999675
0.0,3767.0,0.0583944022655487
0.0,3768.0,0.0583336912095546
0.0,3769.0,0.0583237148821353
0.0,3770.0,0.0582684427499771
0.0,3771.0,0.0582113675773143
0.0,3772.0,0.0581939443945884
0.0,3773.0,0.0581823401153087
0.0,3774.0,0.0580961257219314
0.0,3775.0,0.0581674575805664
0.0,3776.0,0.0580874234437942
0.0,3777.0,0.057986244559288
0.0,3778.0,0.0580818206071853
0.0,3779.0,0.0580544173717498
0.0,3780.0,0.0579719021916389
0.0,3781.0,0.0578717999160289
0.0,3782.0,0.0579248443245887
0.0,3783.0,0.0578996092081069
0.0,3784.0,0.0578114613890647
0.0,3785.0,0.0577829554677009
0.0,3786.0,0.0577233396470546
0.0,3787.0,0.0577922351658344
0.0,3788.0,0.0576132051646709
0.0,3789.0,0.0577005706727504
0.0,3790.0,0.0576329082250595
0.0,3791.0,0.0575493536889553
0.0,3792.0,0.0575924031436443
0.0,3793.0,0.0575447976589202
0.0,3794.0,0.0574531443417072
0.0,3795.0,0.0574520640075206
0.0,3796.0,0.0573852136731147
0.0,3797.0,0.057434644550085
0.0,3798.0,0.0574199371039867
0.0,3799.0,0.057393904775381
0.0,3800.0,0.0573132000863552
0.0,3801.0,0.057317528873682
0.0,3802.0,0.0572812221944332
0.0,3803.0,0.0572116822004318
0.0,3804.0,0.0571693517267704
0.0,3805.0,0.0571428425610065
0.0,3806.0,0.0570771768689155
0.0,3807.0,0.057165578007698
0.0,3808.0,0.0570193156599998
0.0,3809.0,0.0569846704602241
0.0,3810.0,0.0570148937404155
0.0,3811.0,0.0568977855145931
0.0,3812.0,0.0569672845304012
0.0,3813.0,0.0568980202078819
0.0,3814.0,0.0568375214934349
0.0,3815.0,0.0567492172122001
0.0,3816.0,0.0567967966198921
0.0,3817.0,0.0567273534834384
0.0,3818.0,0.0567235648632049
0.0,3819.0,0.0567442514002323
0.0,3820.0,0.0565280430018901
0.0,3821.0,0.0566239729523658
0.0,3822.0,0.056692898273468
0.0,3823.0,0.0565738007426261
0.0,3824.0,0.0564980804920196
0.0,3825.0,0.0564960837364196
0.0,3826.0,0.0564587190747261
0.0,3827.0,0.0564357824623584
0.0,3828.0,0.0563770085573196
0.0,3829.0,0.0564060695469379
0.0,3830.0,0.0562931708991527
0.0,3831.0,0.0563158877193927
0.0,3832.0,0.0562431700527668
0.0,3833.0,0.0562153793871402
0.0,3834.0,0.0561723075807094
0.0,3835.0,0.0562225617468357
0.0,3836.0,0.0561475381255149
0.0,3837.0,0.056073572486639
0.0,3838.0,0.0560502968728542
0.0,3839.0,0.0559746399521827
0.0,3840.0,0.0559718906879425
0.0,3841.0,0.0560054406523704
0.0,3842.0,0.0559586733579635
0.0,3843.0,0.0559464953839778
0.0,3844.0,0.055900502949953
0.0,3845.0,0.0558667927980423
0.0,3846.0,0.0557799898087978
0.0,3847.0,0.0557801686227321
0.0,3848.0,0.0557926446199417
0.0,3849.0,0.0557084418833255
0.0,3850.0,0.0556762777268886
0.0,3851.0,0.055601492524147
0.0,3852.0,0.0556507594883441
0.0,3853.0,0.0555753484368324
0.0,3854.0,0.0555630736052989
0.0,3855.0,0.0555963926017284
0.0,3856.0,0.0555565357208251
0.0,3857.0,0.0554874166846275
0.0,3858.0,0.0554193072021007
0.0,3859.0,0.055412333458662
0.0,3860.0,0.055426362901926
0.0,3861.0,0.0552965216338634
0.0,3862.0,0.0553709864616394
0.0,3863.0,0.0553734004497528
0.0,3864.0,0.0552330166101455
0.0,3865.0,0.0552056208252906
0.0,3866.0,0.0552130565047264
0.0,3867.0,0.0550950951874256
0.0,3868.0,0.0551595129072666
0.0,3869.0,0.0550967864692211
0.0,3870.0,0.0550855472683906
0.0,3871.0,0.0550865866243839
0.0,3872.0,0.0550777129828929
0.0,3873.0,0.054967276751995
0.0,3874.0,0.0548485927283763
0.0,3875.0,0.0549104958772659
0.0,3876.0,0.0548791699111461
0.0,3877.0,0.0548348315060138
0.0,3878.0,0.0548322685062885
0.0,3879.0,0.0547446496784687
0.0,3880.0,0.0547166280448436
0.0,3881.0,0.05471833050251
0.0,3882.0,0.0546623952686786
0.0,3883.0,0.0546350255608558
0.0,3884.0,0.0546633005142211
0.0,3885.0,0.0546232126653194
0.0,3886.0,0.0545066967606544
0.0,3887.0,0.0544973872601985
0.0,3888.0,0.0545122921466827
0.0,3889.0,0.0544414818286895
0.0,3890.0,0.0544962473213672
0.0,3891.0,0.0544727556407451
0.0,3892.0,0.0544127896428108
0.0,3893.0,0.0542476698756217
0.0,3894.0,0.054356426000595
0.0,3895.0,0.0543042011559009
0.0,3896.0,0.0542606301605701
0.0,3897.0,0.0541716516017913
0.0,3898.0,0.0542102605104446
0.0,3899.0,0.0542055256664752
0.0,3900.0,0.0540720000863075
0.0,3901.0,0.0540883988142013
0.0,3902.0,0.0540810972452163
0.0,3903.0,0.054068349301815
0.0,3904.0,0.0539889074862003
0.0,3905.0,0.0539775006473064
0.0,3906.0,0.0540195927023887
0.0,3907.0,0.0539236180484294
0.0,3908.0,0.0538564994931221
0.0,3909.0,0.053869891911745
0.0,3910.0,0.0538818649947643
0.0,3911.0,0.0538249649107456
0.0,3912.0,0.0537168607115745
0.0,3913.0,0.0537876635789871
0.0,3914.0,0.0536985509097576
0.0,3915.0,0.0536757186055183
0.0,3916.0,0.0536776892840862
0.0,3917.0,0.053601499646902
0.0,3918.0,0.0535960644483566
0.0,3919.0,0.0535171516239643
0.0,3920.0,0.0535259246826171
0.0,3921.0,0.0535252466797828
0.0,3922.0,0.053551897406578
0.0,3923.0,0.0534858256578445
0.0,3924.0,0.0534615777432918
0.0,3925.0,0.053299993276596
0.0,3926.0,0.0533104091882705
0.0,3927.0,0.0533083863556385
0.0,3928.0,0.0532898530364036
0.0,3929.0,0.0532095767557621
0.0,3930.0,0.0532340966165065
0.0,3931.0,0.0532474070787429
0.0,3932.0,0.0531949363648891
0.0,3933.0,0.0532062239944934
0.0,3934.0,0.0531268008053302
0.0,3935.0,0.0531083196401596
0.0,3936.0,0.0530159585177898
0.0,3937.0,0.0530836433172225
0.0,3938.0,0.0529818572103977
0.0,3939.0,0.0529649518430233
0.0,3940.0,0.0529220215976238
0.0,3941.0,0.0529254302382469
0.0,3942.0,0.0527675226330757
0.0,3943.0,0.052860427647829
0.0,3944.0,0.052855335175991
0.0,3945.0,0.0528093501925468
0.0,3946.0,0.0526858419179916
0.0,3947.0,0.0526853203773498
0.0,3948.0,0.0526581592857837
0.0,3949.0,0.0527202077209949
0.0,3950.0,0.0525983087718486
0.0,3951.0,0.0526000149548053
0.0,3952.0,0.0525655858218669
0.0,3953.0,0.0525132939219474
0.0,3954.0,0.0525702573359012
0.0,3955.0,0.0524736046791076
0.0,3956.0,0.0524629801511764
0.0,3957.0,0.0524164550006389
0.0,3958.0,0.0523357689380645
0.0,3959.0,0.0523428283631801
0.0,3960.0,0.0523311682045459
0.0,3961.0,0.0522039979696273
0.0,3962.0,0.0522785075008869
0.0,3963.0,0.052310261875391
0.0,3964.0,0.0522755719721317
0.0,3965.0,0.0522083640098571
0.0,3966.0,0.0521251037716865
0.0,3967.0,0.052091471850872
0.0,3968.0,0.0520553439855575
0.0,3969.0,0.0519786290824413
0.0,3970.0,0.0520082451403141
0.0,3971.0,0.0520417243242263
0.0,3972.0,0.0519098117947578
0.0,3973.0,0.0518928207457065
0.0,3974.0,0.051839604973793
0.0,3975.0,0.0518985800445079
0.0,3976.0,0.0519159436225891
0.0,3977.0,0.0518254935741424
0.0,3978.0,0.0518313832581043
0.0,3979.0,0.0517288371920585
0.0,3980.0,0.0516469739377498
0.0,3981.0,0.0517144463956356
0.0,3982.0,0.0516776628792285
0.0,3983.0,0.0516658872365951
0.0,3984.0,0.0516536422073841
0.0,3985.0,0.0515761077404022
0.0,3986.0,0.0515980273485183
0.0,3987.0,0.0515577718615531
0.0,3988.0,0.0514559000730514
0.0,3989.0,0.0515064485371112
0.0,3990.0,0.0514765344560146
0.0,3991.0,0.0514609366655349
0.0,3992.0,0.0513364411890506
0.0,3993.0,0.0513473413884639
0.0,3994.0,0.0513968914747238
0.0,3995.0,0.0512752868235111
0.0,3996.0,0.0512279979884624
0.0,3997.0,0.0511940568685531
0.0,3998.0,0.0512115582823753
0.0,3999.0,0.0512261167168617
0.0,4000.0,0.0511344410479068
0.0,4001.0,0.051072672009468
0.0,4002.0,0.0511570051312446
0.0,4003.0,0.051028911024332
0.0,4004.0,0.0510862804949283
0.0,4005.0,0.0510065704584121
0.0,4006.0,0.0510214120149612
0.0,4007.0,0.0509429387748241
0.0,4008.0,0.0508967339992523
0.0,4009.0,0.050940528512001
0.0,4010.0,0.0508866906166076
0.0,4011.0,0.0507243536412715
0.0,4012.0,0.0508251041173934
0.0,4013.0,0.0507001318037509
0.0,4014.0,0.0507225766777992
0.0,4015.0,0.0507392473518848
0.0,4016.0,0.0506779924035072
0.0,4017.0,0.0506873726844787
0.0,4018.0,0.0505653545260429
0.0,4019.0,0.0506151914596557
0.0,4020.0,0.0505401827394962
0.0,4021.0,0.0505375005304813
0.0,4022.0,0.0505566895008087
0.0,4023.0,0.0504977144300937
0.0,4024.0,0.0504353865981102
0.0,4025.0,0.0504076778888702
0.0,4026.0,0.0504467897117137
0.0,4027.0,0.0504400581121444
0.0,4028.0,0.0503351762890815
0.0,4029.0,0.0503088273108005
0.0,4030.0,0.0504067577421665
0.0,4031.0,0.0502769351005554
0.0,4032.0,0.0502867214381694
0.0,4033.0,0.050135638564825
0.0,4034.0,0.0501686967909336
0.0,4035.0,0.0501008033752441
0.0,4036.0,0.0501338727772235
0.0,4037.0,0.0500375442206859
0.0,4038.0,0.0501055717468261
0.0,4039.0,0.0501054264605045
0.0,4040.0,0.0500022806227207
0.0,4041.0,0.0500026606023311
0.0,4042.0,0.0499628260731697
0.0,4043.0,0.0499095059931278
0.0,4044.0,0.0499208159744739
0.0,4045.0,0.0499349869787693
0.0,4046.0,0.0498570874333381
0.0,4047.0,0.0498321838676929
0.0,4048.0,0.0498164556920528
0.0,4049.0,0.0497763492166996
0.0,4050.0,0.0497301630675792
0.0,4051.0,0.0497705265879631
0.0,4052.0,0.0496743358671665
