0;0;2.2505404949188232
0;1;2.1932992935180664
0;2;2.232089042663574
0;3;2.276621103286743
0;4;2.221266746520996
0;5;2.231581211090088
0;6;2.1615893840789795
0;7;2.2554309368133545
0;8;2.2259531021118164
0;9;2.222872734069824
0;10;2.162588357925415
0;11;2.196155548095703
0;12;2.179497241973877
0;13;2.2101263999938965
0;14;2.220273494720459
0;15;2.202421188354492
0;16;2.2346818447113037
0;17;2.257220506668091
0;18;2.1702661514282227
0;19;2.170687437057495
0;20;2.2107837200164795
0;21;2.187188148498535
0;22;2.2417755126953125
0;23;2.188889980316162
0;24;2.2205803394317627
0;25;2.2629234790802
0;26;2.177478075027466
0;27;2.2203104496002197
0;28;2.2441909313201904
0;29;2.2181732654571533
0;30;2.1879405975341797
0;31;2.1979148387908936
0;32;2.153334140777588
0;33;2.1748433113098145
0;34;2.1849889755249023
0;35;2.2039263248443604
0;36;2.215479850769043
0;37;2.2025513648986816
0;38;2.197965145111084
0;39;2.256272315979004
0;40;2.184213161468506
0;41;2.1877970695495605
0;42;2.2484045028686523
0;43;2.141160011291504
0;44;2.1836929321289062
0;45;2.2110579013824463
0;46;2.1689634323120117
0;47;2.208723306655884
0;48;2.1423068046569824
0;49;2.20526385307312
0;50;2.1802732944488525
0;51;2.1929800510406494
0;52;2.248974561691284
0;53;2.1907131671905518
0;54;2.18389630317688
0;55;2.216646432876587
0;56;2.161320686340332
0;57;2.2270090579986572
0;58;2.197486400604248
0;59;2.1541011333465576
0;60;2.2345240116119385
0;61;2.22421932220459
0;62;2.195810556411743
0;63;2.185468912124634
0;64;2.2413628101348877
0;65;2.1805245876312256
0;66;2.169299840927124
0;67;2.1946332454681396
0;68;2.184976100921631
0;69;2.153977394104004
0;70;2.1752984523773193
0;71;2.135434150695801
0;72;2.19796085357666
0;73;2.228311777114868
0;74;2.1984050273895264
0;75;2.213798999786377
0;76;2.1825709342956543
0;77;2.17594838142395
0;78;2.1822047233581543
0;79;2.194977045059204
0;80;2.211477041244507
0;81;2.129610061645508
0;82;2.1859328746795654
0;83;2.1681957244873047
0;84;2.1661837100982666
0;85;2.1833314895629883
0;86;2.1611146926879883
0;87;2.1764283180236816
0;88;2.2581090927124023
0;89;2.1901156902313232
0;90;2.1879982948303223
0;91;2.213142156600952
0;92;2.190882682800293
0;93;2.183812141418457
0;94;2.207841157913208
0;95;2.1895883083343506
0;96;2.176159620285034
0;97;2.151545763015747
0;98;2.1773083209991455
0;99;2.167675733566284
0;100;2.2096242904663086
0;101;2.18430495262146
0;102;2.2161295413970947
0;103;2.1840412616729736
0;104;2.2170283794403076
0;105;2.169097661972046
0;106;2.1892144680023193
0;107;2.233222246170044
0;108;2.1683826446533203
0;109;2.170866012573242
0;110;2.1998298168182373
0;111;2.200910806655884
0;112;2.1298654079437256
0;113;2.1824147701263428
0;114;2.1711387634277344
0;115;2.1794350147247314
0;116;2.1296610832214355
0;117;2.166943311691284
0;118;2.2176973819732666
0;119;2.1993777751922607
0;120;2.1993348598480225
0;121;2.1795358657836914
0;122;2.1591196060180664
0;123;2.219675064086914
0;124;2.117302656173706
0;125;2.186967611312866
0;126;2.2243218421936035
0;127;2.1455113887786865
0;128;2.1816303730010986
0;129;2.210317373275757
0;130;2.2035059928894043
0;131;2.163837432861328
0;132;2.1897244453430176
0;133;2.204195022583008
0;134;2.1487302780151367
0;135;2.1740190982818604
0;136;2.1923341751098633
0;137;2.187993049621582
0;138;2.18304443359375
0;139;2.1909453868865967
0;140;2.14931321144104
0;141;2.144928455352783
0;142;2.1417572498321533
0;143;2.180122137069702
0;144;2.167320728302002
0;145;2.2032413482666016
0;146;2.178602695465088
0;147;2.1789166927337646
0;148;2.1944305896759033
0;149;2.148014783859253
0;150;2.142948627471924
0;151;2.1928963661193848
0;152;2.208465337753296
0;153;2.1560728549957275
0;154;2.1803550720214844
0;155;2.1712918281555176
0;156;2.1710288524627686
0;157;2.191621780395508
0;158;2.1446945667266846
0;159;2.1799161434173584
0;160;2.2036495208740234
0;161;2.2153172492980957
0;162;2.1647512912750244
0;163;2.1668989658355713
0;164;2.1877758502960205
0;165;2.1506521701812744
0;166;2.2286624908447266
0;167;2.194524049758911
0;168;2.150341033935547
0;169;2.223745584487915
0;170;2.1853299140930176
0;171;2.151486396789551
0;172;2.1527159214019775
0;173;2.165799379348755
0;174;2.175617218017578
0;175;2.2050201892852783
0;176;2.1780853271484375
0;177;2.116852283477783
0;178;2.1545729637145996
0;179;2.1543028354644775
0;180;2.1764955520629883
0;181;2.1822776794433594
0;182;2.157825231552124
0;183;2.184664011001587
0;184;2.180694341659546
0;185;2.1941988468170166
0;186;2.1484084129333496
0;187;2.1835856437683105
0;188;2.194624423980713
0;189;2.1748411655426025
0;190;2.223620891571045
0;191;2.1775360107421875
0;192;2.121025323867798
0;193;2.1997909545898438
0;194;2.1990318298339844
0;195;2.2138288021087646
0;196;2.169801712036133
0;197;2.1687142848968506
0;198;2.136981725692749
0;199;2.227555990219116
0;200;2.1424219608306885
0;201;2.169696092605591
0;202;2.1566519737243652
0;203;2.1802399158477783
0;204;2.1681180000305176
0;205;2.125575304031372
0;206;2.161470413208008
0;207;2.1738851070404053
0;208;2.18367862701416
0;209;2.1694295406341553
0;210;2.1870975494384766
0;211;2.184331178665161
0;212;2.1883416175842285
0;213;2.159609317779541
0;214;2.1803829669952393
0;215;2.196181297302246
0;216;2.1727137565612793
0;217;2.1898300647735596
0;218;2.1858997344970703
0;219;2.1717324256896973
0;220;2.1716136932373047
0;221;2.150597333908081
0;222;2.1871633529663086
0;223;2.1723248958587646
0;224;2.1819541454315186
0;225;2.176213026046753
0;226;2.186937093734741
0;227;2.11639666557312
0;228;2.1555190086364746
0;229;2.185331344604492
0;230;2.154350757598877
0;231;2.1700518131256104
0;232;2.214128017425537
0;233;2.1669905185699463
0;234;2.163370370864868
0;235;2.164372682571411
0;236;2.1821136474609375
0;237;2.157867431640625
0;238;2.2289371490478516
0;239;2.1265711784362793
0;240;2.1626875400543213
0;241;2.1276206970214844
0;242;2.218501567840576
0;243;2.140082597732544
0;244;2.2144522666931152
0;245;2.2095937728881836
0;246;2.1717326641082764
0;247;2.1888883113861084
0;248;2.1948049068450928
0;249;2.1427152156829834
0;250;2.164118766784668
0;251;2.2003281116485596
0;252;2.15571665763855
0;253;2.2158665657043457
0;254;2.1207728385925293
0;255;2.1828105449676514
0;256;2.1568443775177
0;257;2.1558666229248047
0;258;2.155441999435425
0;259;2.1789298057556152
0;260;2.178406238555908
0;261;2.146303415298462
0;262;2.1607062816619873
0;263;2.1510872840881348
0;264;2.1122143268585205
0;265;2.144355297088623
0;266;2.1796865463256836
0;267;2.138955593109131
0;268;2.1648781299591064
0;269;2.161067485809326
0;270;2.170950174331665
0;271;2.158006429672241
0;272;2.1418039798736572
0;273;2.1856513023376465
0;274;2.2121095657348633
0;275;2.1491551399230957
0;276;2.124239206314087
0;277;2.1858787536621094
0;278;2.148613214492798
0;279;2.1814911365509033
0;280;2.1843855381011963
0;281;2.1746468544006348
0;282;2.1780598163604736
0;283;2.163322925567627
0;284;2.192411422729492
0;285;2.182267904281616
0;286;2.1415655612945557
0;287;2.242088794708252
0;288;2.168574571609497
0;289;2.1381003856658936
0;290;2.1705334186553955
0;291;2.1496453285217285
0;292;2.1664721965789795
0;293;2.192106246948242
0;294;2.145219087600708
0;295;2.145108938217163
0;296;2.2091095447540283
0;297;2.150639295578003
0;298;2.165682315826416
0;299;2.14482045173645
0;300;2.2009525299072266
0;301;2.1747865676879883
0;302;2.177978515625
0;303;2.1906228065490723
0;304;2.1329712867736816
0;305;2.173313617706299
0;306;2.1781504154205322
0;307;2.1536169052124023
0;308;2.187955379486084
0;309;2.150486469268799
0;310;2.1337828636169434
0;311;2.1747519969940186
0;312;2.147726058959961
0;313;2.0959930419921875
0;314;2.138669490814209
0;315;2.148895502090454
0;316;2.147825241088867
0;317;2.178302526473999
0;318;2.1571123600006104
0;319;2.128354787826538
0;320;2.113513708114624
0;321;2.1876368522644043
0;322;2.216867685317993
0;323;2.200812578201294
0;324;2.1758744716644287
0;325;2.2197787761688232
0;326;2.153871774673462
0;327;2.1690030097961426
0;328;2.1257150173187256
0;329;2.1604020595550537
0;330;2.12636137008667
0;331;2.1189157962799072
0;332;2.1282272338867188
0;333;2.163381338119507
0;334;2.193415880203247
0;335;2.1147048473358154
0;336;2.121082305908203
0;337;2.1578636169433594
0;338;2.1689651012420654
0;339;2.1427161693573
0;340;2.1655099391937256
0;341;2.1308329105377197
0;342;2.15976881980896
0;343;2.1690921783447266
0;344;2.1782822608947754
0;345;2.1858866214752197
0;346;2.181373357772827
0;347;2.1645431518554688
0;348;2.211071729660034
0;349;2.1264374256134033
0;350;2.154141902923584
0;351;2.115309000015259
0;352;2.1604018211364746
0;353;2.1579363346099854
0;354;2.161766767501831
0;355;2.195834159851074
0;356;2.156179189682007
0;357;2.1192922592163086
0;358;2.122497797012329
0;359;2.1729848384857178
0;360;2.1773903369903564
0;361;2.1899564266204834
0;362;2.1363251209259033
0;363;2.1381947994232178
0;364;2.142303705215454
0;365;2.1556386947631836
0;366;2.2077243328094482
0;367;2.1702382564544678
0;368;2.17964243888855
0;369;2.129971981048584
0;370;2.1803510189056396
0;371;2.1447694301605225
0;372;2.1355133056640625
0;373;2.1601004600524902
0;374;2.1351213455200195
0;375;2.168238401412964
0;376;2.188143014907837
0;377;2.0922787189483643
0;378;2.1379973888397217
0;379;2.159024953842163
0;380;2.1369876861572266
0;381;2.1397786140441895
0;382;2.14300274848938
0;383;2.165443181991577
0;384;2.2086641788482666
0;385;2.151047468185425
0;386;2.1397454738616943
0;387;2.114011764526367
0;388;2.09786319732666
0;389;2.1912808418273926
0;390;2.1031646728515625
0;391;2.1600582599639893
0;392;2.1600046157836914
0;393;2.1328704357147217
0;394;2.152939558029175
0;395;2.1342122554779053
0;396;2.135632276535034
0;397;2.148416042327881
0;398;2.2160279750823975
0;399;2.1518654823303223
0;400;2.071859121322632
0;401;2.1701202392578125
0;402;2.165031671524048
0;403;2.1282238960266113
0;404;2.142642021179199
0;405;2.135788917541504
0;406;2.1798789501190186
0;407;2.1328482627868652
0;408;2.075716495513916
0;409;2.1164162158966064
0;410;2.1606223583221436
0;411;2.1772525310516357
0;412;2.1510519981384277
0;413;2.1325182914733887
0;414;2.1489994525909424
0;415;2.109455108642578
0;416;2.1711225509643555
0;417;2.091665267944336
0;418;2.1553702354431152
0;419;2.1735401153564453
0;420;2.1802408695220947
0;421;2.1944968700408936
0;422;2.1258749961853027
0;423;2.167738676071167
0;424;2.1794183254241943
0;425;2.1800410747528076
0;426;2.1577937602996826
0;427;2.1109747886657715
0;428;2.160212993621826
0;429;2.130495548248291
0;430;2.1319668292999268
0;431;2.0555005073547363
0;432;2.1554079055786133
0;433;2.136333703994751
0;434;2.1439552307128906
0;435;2.122859239578247
0;436;2.1894397735595703
0;437;2.183444023132324
0;438;2.142019271850586
0;439;2.129739284515381
0;440;2.1622605323791504
0;441;2.1585607528686523
0;442;2.1417274475097656
0;443;2.1395223140716553
0;444;2.211902141571045
0;445;2.1977133750915527
0;446;2.196800947189331
0;447;2.075523614883423
0;448;2.053459405899048
0;449;2.129446268081665
0;450;2.096919298171997
0;451;2.1264002323150635
0;452;2.1229875087738037
0;453;2.1396026611328125
0;454;2.1099016666412354
0;455;2.17854642868042
0;456;2.105900526046753
0;457;2.168610095977783
0;458;2.055637836456299
0;459;2.1140177249908447
0;460;2.1766421794891357
0;461;2.1374752521514893
0;462;2.0991861820220947
0;463;2.1917083263397217
0;464;2.172602653503418
0;465;2.125744104385376
0;466;2.1832261085510254
0;467;2.0705459117889404
0;468;2.1568033695220947
0;469;2.131993055343628
0;470;2.1390130519866943
0;471;2.0971875190734863
0;472;2.1308236122131348
0;473;2.1537346839904785
0;474;2.1010069847106934
0;475;2.131748676300049
0;476;2.1564712524414062
0;477;2.15655779838562
0;478;2.109982490539551
0;479;2.1260826587677
0;480;2.179375171661377
0;481;2.081594228744507
0;482;2.156311273574829
0;483;2.094726324081421
0;484;2.1210920810699463
0;485;2.1298253536224365
0;486;2.1070477962493896
0;487;2.1641504764556885
0;488;2.1526308059692383
0;489;2.1285839080810547
0;490;2.1445510387420654
0;491;2.1241514682769775
0;492;2.1426889896392822
0;493;2.1488876342773438
0;494;2.133524179458618
0;495;2.1393425464630127
0;496;2.071234941482544
0;497;2.1838700771331787
0;498;2.1209511756896973
0;499;2.128157377243042
0;500;2.1513171195983887
0;501;2.1893889904022217
0;502;2.089033365249634
0;503;2.185152769088745
0;504;2.122786521911621
0;505;2.1292617321014404
0;506;2.1918370723724365
0;507;2.118985652923584
0;508;2.1937310695648193
0;509;2.1102800369262695
0;510;2.0645718574523926
0;511;2.095179319381714
0;512;2.166588068008423
0;513;2.176567554473877
0;514;2.094123363494873
0;515;2.1002674102783203
0;516;2.1535542011260986
0;517;2.128587245941162
0;518;2.1457014083862305
0;519;2.1805660724639893
0;520;2.1154496669769287
0;521;2.113382339477539
0;522;2.0881388187408447
0;523;2.138094902038574
0;524;2.1275455951690674
0;525;2.125091075897217
0;526;2.1561119556427
0;527;2.1410272121429443
0;528;2.14384388923645
0;529;2.1206300258636475
0;530;2.124535322189331
0;531;2.136082172393799
0;532;2.120246171951294
0;533;2.1095385551452637
0;534;2.096210479736328
0;535;2.1520473957061768
0;536;2.1051111221313477
0;537;2.1094088554382324
0;538;2.1215646266937256
0;539;2.1603329181671143
0;540;2.0821096897125244
0;541;2.1693601608276367
0;542;2.1554884910583496
0;543;2.1801376342773438
0;544;2.1370317935943604
0;545;2.140472888946533
0;546;2.1051156520843506
0;547;2.1263163089752197
0;548;2.1031670570373535
0;549;2.117945671081543
0;550;2.1020102500915527
0;551;2.135220766067505
0;552;2.131964921951294
0;553;2.1554031372070312
0;554;2.1131560802459717
0;555;2.1650478839874268
0;556;2.129117012023926
0;557;2.1376633644104004
0;558;2.1691513061523438
0;559;2.1419951915740967
0;560;2.132068395614624
0;561;2.0642244815826416
0;562;2.1498475074768066
0;563;2.1422696113586426
0;564;2.121509552001953
0;565;2.175159215927124
0;566;2.124709129333496
0;567;2.158069372177124
0;568;2.1178441047668457
0;569;2.127910614013672
0;570;2.151960849761963
0;571;2.162477493286133
0;572;2.0973458290100098
0;573;2.1030592918395996
0;574;2.216139316558838
0;575;2.161797523498535
0;576;2.134706974029541
0;577;2.1371378898620605
0;578;2.0978317260742188
0;579;2.118389844894409
0;580;2.1253437995910645
0;581;2.1295173168182373
0;582;2.1923770904541016
0;583;2.083047389984131
0;584;2.1031153202056885
0;585;2.1227710247039795
0;586;2.1456921100616455
0;587;2.0837137699127197
0;588;2.1777517795562744
0;589;2.0911030769348145
0;590;2.160095691680908
0;591;2.092548131942749
0;592;2.1134121417999268
0;593;2.1087496280670166
0;594;2.155104637145996
0;595;2.109492301940918
0;596;2.14552640914917
0;597;2.1258060932159424
0;598;2.0977835655212402
0;599;2.0907609462738037
0;600;2.0815539360046387
0;601;2.0846614837646484
0;602;2.1247870922088623
0;603;2.0853958129882812
0;604;2.143784523010254
0;605;2.1373069286346436
0;606;2.133820056915283
0;607;2.120387554168701
0;608;2.135401964187622
0;609;2.0913639068603516
0;610;2.148064136505127
0;611;2.1334011554718018
0;612;2.134782552719116
0;613;2.08105206489563
0;614;2.0441746711730957
0;615;2.0738186836242676
0;616;2.0892834663391113
0;617;2.155712842941284
0;618;2.1624927520751953
0;619;2.163731813430786
0;620;2.1080079078674316
0;621;2.1616106033325195
0;622;2.1108222007751465
0;623;2.162083387374878
0;624;2.1391990184783936
0;625;2.1102583408355713
0;626;2.0318198204040527
0;627;2.094390630722046
0;628;2.1127817630767822
0;629;2.1587538719177246
0;630;2.119359254837036
0;631;2.1328744888305664
0;632;2.0779597759246826
0;633;2.1161789894104004
0;634;2.0989673137664795
0;635;2.180173397064209
0;636;2.13156795501709
0;637;2.1499152183532715
0;638;2.17991304397583
0;639;2.1300745010375977
0;640;2.144601583480835
0;641;2.058255672454834
0;642;2.0991411209106445
0;643;2.123091697692871
0;644;2.1200242042541504
0;645;2.0953128337860107
0;646;2.189389705657959
0;647;2.1013777256011963
0;648;2.143902540206909
0;649;2.162966728210449
0;650;2.0621209144592285
0;651;2.0216002464294434
0;652;2.102247476577759
0;653;2.150940179824829
0;654;2.135441780090332
0;655;2.090461492538452
0;656;2.1738452911376953
0;657;2.1069724559783936
0;658;2.056856393814087
0;659;2.1676559448242188
0;660;2.1288249492645264
0;661;2.0867841243743896
0;662;2.1904590129852295
0;663;2.1415483951568604
0;664;2.0836830139160156
0;665;2.0938897132873535
0;666;2.0985679626464844
0;667;2.1031923294067383
0;668;2.067533254623413
0;669;2.151085615158081
0;670;2.098646879196167
0;671;2.0849578380584717
0;672;2.107013463973999
0;673;2.1562254428863525
0;674;2.1284048557281494
0;675;2.1189815998077393
0;676;2.1248044967651367
0;677;2.1218442916870117
0;678;2.0690133571624756
0;679;2.14007306098938
0;680;2.0735816955566406
0;681;2.1327991485595703
0;682;2.1454029083251953
0;683;2.152205228805542
0;684;2.1360480785369873
0;685;2.068969249725342
0;686;2.152266263961792
0;687;2.114293098449707
0;688;2.1592724323272705
0;689;2.0573060512542725
0;690;2.063497304916382
0;691;2.131237030029297
0;692;2.090585947036743
0;693;2.176983118057251
0;694;2.1159982681274414
0;695;2.0785672664642334
0;696;2.060107707977295
0;697;2.0879125595092773
0;698;2.1357920169830322
0;699;2.083561897277832
0;700;2.0855391025543213
0;701;2.1729466915130615
0;702;2.06816029548645
0;703;2.1546497344970703
0;704;2.083522319793701
0;705;2.0532214641571045
0;706;2.1233391761779785
0;707;2.1057827472686768
0;708;2.096198797225952
0;709;2.105072021484375
0;710;2.1662404537200928
0;711;2.1167521476745605
0;712;2.0564379692077637
0;713;2.126690626144409
0;714;2.1152238845825195
0;715;2.0846831798553467
0;716;2.1661243438720703
0;717;2.1396076679229736
0;718;2.1159794330596924
0;719;2.063345432281494
0;720;2.1053287982940674
0;721;2.1246445178985596
0;722;2.165811061859131
0;723;2.1439261436462402
0;724;2.149700403213501
0;725;2.075483560562134
0;726;2.089275598526001
0;727;2.1328890323638916
0;728;2.109625816345215
0;729;2.1455957889556885
0;730;2.1058857440948486
0;731;2.089740514755249
0;732;2.075662851333618
0;733;2.1467933654785156
0;734;2.085238456726074
0;735;2.1449267864227295
0;736;2.0685060024261475
0;737;2.099769115447998
0;738;2.177055597305298
0;739;2.1323084831237793
0;740;2.167100191116333
0;741;2.0879786014556885
0;742;2.08428955078125
0;743;2.0870673656463623
0;744;2.1040310859680176
0;745;2.0571157932281494
0;746;2.0743038654327393
0;747;2.1637728214263916
0;748;2.105846881866455
0;749;2.109614133834839
0;750;2.1675755977630615
0;751;2.138657331466675
0;752;2.1202988624572754
0;753;2.1128735542297363
0;754;2.1211931705474854
0;755;2.096424102783203
0;756;2.151615619659424
0;757;2.128037452697754
0;758;2.097147226333618
0;759;2.05830717086792
0;760;2.1321492195129395
0;761;2.106450080871582
0;762;2.130810499191284
0;763;2.064887523651123
0;764;2.1595256328582764
0;765;2.102449655532837
0;766;2.068647623062134
0;767;2.115891456604004
0;768;2.07472825050354
0;769;2.0905749797821045
0;770;2.0811824798583984
0;771;2.0714921951293945
0;772;2.1045193672180176
0;773;2.1198713779449463
0;774;2.1805830001831055
0;775;2.094059705734253
0;776;2.1367905139923096
0;777;2.08597469329834
0;778;2.136528491973877
0;779;2.057818651199341
0;780;2.107362985610962
0;781;2.0979528427124023
0;782;2.0828564167022705
0;783;2.080662965774536
0;784;2.14449143409729
0;785;2.1034369468688965
0;786;2.189527750015259
0;787;2.172128438949585
0;788;2.1353349685668945
0;789;2.131197690963745
0;790;2.116617441177368
0;791;2.0515639781951904
0;792;2.116891622543335
0;793;2.148524761199951
0;794;2.1284775733947754
0;795;2.1035714149475098
0;796;2.1140975952148438
0;797;2.12416410446167
0;798;2.0910909175872803
0;799;2.141071081161499
0;800;2.0999724864959717
0;801;2.0810706615448
0;802;2.1429927349090576
0;803;2.1072463989257812
0;804;2.056837320327759
0;805;2.175670862197876
0;806;2.0794239044189453
0;807;2.112793445587158
0;808;2.116386890411377
0;809;2.070582389831543
0;810;2.118218421936035
0;811;2.106654405593872
0;812;2.1096909046173096
0;813;2.1217145919799805
0;814;2.071725845336914
0;815;2.0763144493103027
0;816;2.074321746826172
0;817;2.1042075157165527
0;818;2.0589118003845215
0;819;2.1079936027526855
0;820;2.1647331714630127
0;821;2.2041127681732178
0;822;2.129302740097046
0;823;2.1341946125030518
0;824;2.0910611152648926
0;825;2.167341947555542
0;826;2.095947027206421
0;827;2.1035075187683105
0;828;2.0582361221313477
0;829;2.097493886947632
0;830;2.08827543258667
0;831;2.1437952518463135
0;832;2.0867319107055664
0;833;2.0773911476135254
0;834;2.086592197418213
0;835;2.160015106201172
0;836;2.108548164367676
0;837;2.1236743927001953
0;838;2.035980701446533
0;839;2.108588218688965
0;840;2.026073932647705
0;841;2.066255569458008
0;842;2.0899460315704346
0;843;2.0605523586273193
0;844;2.136230707168579
0;845;2.065307378768921
0;846;2.1069328784942627
0;847;2.0978617668151855
0;848;2.1018190383911133
0;849;2.0151684284210205
0;850;2.125692367553711
0;851;2.0310611724853516
0;852;2.1214497089385986
0;853;2.088656425476074
0;854;2.1122055053710938
0;855;2.0850095748901367
0;856;2.1017701625823975
0;857;2.040137767791748
0;858;2.059605598449707
0;859;2.094183921813965
0;860;2.1547434329986572
0;861;2.114677906036377
0;862;2.0903587341308594
0;863;2.0638580322265625
0;864;2.1267879009246826
0;865;2.1202564239501953
0;866;2.066154956817627
0;867;2.019761085510254
0;868;2.1461658477783203
0;869;2.057157516479492
0;870;2.1220693588256836
0;871;2.0863726139068604
0;872;2.115994930267334
0;873;2.1878743171691895
0;874;2.070312023162842
1;0;2.0864639282226562
1;1;2.1087143421173096
1;2;2.023289203643799
1;3;2.118311882019043
1;4;2.065913438796997
1;5;2.084268093109131
1;6;2.0292229652404785
1;7;2.094512701034546
1;8;2.027529001235962
1;9;2.115339994430542
1;10;2.0775601863861084
1;11;2.040722608566284
1;12;2.1165666580200195
1;13;2.1045589447021484
1;14;2.031493663787842
1;15;2.0655219554901123
1;16;2.045565366744995
1;17;2.091808319091797
1;18;2.1012394428253174
1;19;2.082932472229004
1;20;2.154722213745117
1;21;2.1350533962249756
1;22;2.097612142562866
1;23;2.0754787921905518
1;24;2.093003273010254
1;25;2.040560483932495
1;26;2.078991651535034
1;27;2.118692398071289
1;28;2.0109689235687256
1;29;2.0666844844818115
1;30;2.1082468032836914
1;31;2.1331396102905273
1;32;2.0809683799743652
1;33;2.079529285430908
1;34;2.0851807594299316
1;35;2.0931246280670166
1;36;2.0779309272766113
1;37;2.139906167984009
1;38;2.1487197875976562
1;39;2.095381498336792
1;40;2.0640034675598145
1;41;2.1055259704589844
1;42;2.1613729000091553
1;43;2.138007640838623
1;44;2.1338298320770264
1;45;2.042219877243042
1;46;2.1127684116363525
1;47;2.0416605472564697
1;48;2.039069175720215
1;49;2.037834644317627
1;50;2.098930597305298
1;51;2.0481724739074707
1;52;2.0030136108398438
1;53;2.1126809120178223
1;54;2.0608880519866943
1;55;2.0896055698394775
1;56;2.0490195751190186
1;57;2.1073737144470215
1;58;2.0265915393829346
1;59;2.0773701667785645
1;60;2.0929315090179443
1;61;2.0131969451904297
1;62;2.133234977722168
1;63;2.0806124210357666
1;64;2.038444995880127
1;65;2.0581774711608887
1;66;2.0979623794555664
1;67;2.0712289810180664
1;68;2.0520572662353516
1;69;2.0911757946014404
1;70;2.065655469894409
1;71;2.061415672302246
1;72;2.0884950160980225
1;73;2.156365394592285
1;74;2.1145918369293213
1;75;2.0775976181030273
1;76;2.017921209335327
1;77;2.124967336654663
1;78;2.0962843894958496
1;79;2.071812152862549
1;80;2.1878106594085693
1;81;2.039172887802124
1;82;2.054495096206665
1;83;2.1357345581054688
1;84;2.136841297149658
1;85;2.1957836151123047
1;86;2.139108657836914
1;87;2.0175366401672363
1;88;2.1105804443359375
1;89;2.085965633392334
1;90;2.015126943588257
1;91;2.080458879470825
1;92;2.131319999694824
1;93;2.051114082336426
1;94;2.1145594120025635
1;95;2.151261806488037
1;96;2.1876041889190674
1;97;2.0997540950775146
1;98;2.125506639480591
1;99;2.1425817012786865
1;100;2.0557658672332764
1;101;2.0275137424468994
1;102;2.052342653274536
1;103;2.173503875732422
1;104;2.054527521133423
1;105;2.0538153648376465
1;106;2.061530351638794
1;107;2.0853021144866943
1;108;2.0771913528442383
1;109;2.1178019046783447
1;110;2.0134174823760986
1;111;2.0694615840911865
1;112;2.098944664001465
1;113;2.0310091972351074
1;114;2.056314468383789
1;115;2.146817445755005
1;116;2.0433759689331055
1;117;2.111829996109009
1;118;2.1207737922668457
1;119;2.0331382751464844
1;120;2.020421266555786
1;121;2.06734037399292
1;122;2.064054012298584
1;123;2.1337451934814453
1;124;2.018359661102295
1;125;2.0435993671417236
1;126;2.0918233394622803
1;127;2.104889392852783
1;128;2.05126953125
1;129;2.0718791484832764
1;130;2.0885863304138184
1;131;2.095813512802124
1;132;2.100717067718506
1;133;2.1100528240203857
1;134;2.0942819118499756
1;135;2.114605188369751
1;136;2.132344961166382
1;137;2.140909433364868
1;138;2.0853936672210693
1;139;2.0482778549194336
1;140;2.0907418727874756
1;141;2.0458080768585205
1;142;2.07226824760437
1;143;2.1406352519989014
1;144;1.9847285747528076
1;145;2.084512710571289
1;146;2.1325292587280273
1;147;2.133702039718628
1;148;2.0673940181732178
1;149;2.084728717803955
1;150;2.118354320526123
1;151;2.081157684326172
1;152;2.075469732284546
1;153;2.1373002529144287
1;154;2.1287262439727783
1;155;2.125561475753784
1;156;2.064357280731201
1;157;2.0742673873901367
1;158;2.0875182151794434
1;159;2.032984495162964
1;160;2.1626789569854736
1;161;2.109205484390259
1;162;2.0806612968444824
1;163;2.1208581924438477
1;164;2.1281981468200684
1;165;1.9632335901260376
1;166;2.127622127532959
1;167;2.0123305320739746
1;168;2.0588204860687256
1;169;2.076491117477417
1;170;2.0436177253723145
1;171;2.0241994857788086
1;172;2.1379716396331787
1;173;2.0851330757141113
1;174;2.112722158432007
1;175;2.1023993492126465
1;176;2.0759313106536865
1;177;2.054840087890625
1;178;2.1168832778930664
1;179;2.000748634338379
1;180;2.00394868850708
1;181;2.0910804271698
1;182;2.04445743560791
1;183;2.1290409564971924
1;184;2.113769054412842
1;185;2.01350474357605
1;186;2.0557706356048584
1;187;2.0599417686462402
1;188;1.999937891960144
1;189;2.0617871284484863
1;190;2.1085708141326904
1;191;2.0253732204437256
1;192;2.1556808948516846
1;193;2.086242914199829
1;194;2.1347765922546387
1;195;2.051884651184082
1;196;2.0514895915985107
1;197;2.050438165664673
1;198;2.1113429069519043
1;199;2.105821132659912
1;200;2.037977695465088
1;201;2.0245423316955566
1;202;2.110353469848633
1;203;2.0547149181365967
1;204;2.126142978668213
1;205;2.0022828578948975
1;206;2.067214250564575
1;207;2.130866050720215
1;208;2.054966926574707
1;209;2.0540754795074463
1;210;2.0517168045043945
1;211;2.073671340942383
1;212;2.0932247638702393
1;213;2.101430892944336
1;214;2.1064679622650146
1;215;2.1096620559692383
1;216;2.057389736175537
1;217;2.066347599029541
1;218;2.014683723449707
1;219;2.0773837566375732
1;220;2.103443145751953
1;221;2.0895931720733643
1;222;2.2136456966400146
1;223;2.0664823055267334
1;224;2.073888063430786
1;225;2.070420026779175
1;226;2.100388765335083
1;227;2.076425075531006
1;228;2.0577077865600586
1;229;2.068830728530884
1;230;2.0676374435424805
1;231;2.1119322776794434
1;232;1.9862680435180664
1;233;2.156677722930908
1;234;2.059846878051758
1;235;2.1094367504119873
1;236;2.023076057434082
1;237;2.0939066410064697
1;238;2.0302977561950684
1;239;2.042201042175293
1;240;2.0365867614746094
1;241;2.099008798599243
1;242;2.030059814453125
1;243;2.03247332572937
1;244;2.1463897228240967
1;245;2.021932601928711
1;246;2.0699610710144043
1;247;2.061501979827881
1;248;2.077817916870117
1;249;2.054598331451416
1;250;2.029367685317993
1;251;2.106663465499878
1;252;2.0887842178344727
1;253;2.099759340286255
1;254;2.083650588989258
1;255;2.081791400909424
1;256;2.0598092079162598
1;257;2.0202836990356445
1;258;2.0708651542663574
1;259;2.135319471359253
1;260;2.080254077911377
1;261;2.0773978233337402
1;262;2.079779863357544
1;263;2.034296989440918
1;264;2.025637626647949
1;265;2.1018102169036865
1;266;2.0439391136169434
1;267;2.1182641983032227
1;268;2.013720989227295
1;269;2.134242534637451
1;270;2.09550404548645
1;271;2.061553955078125
1;272;2.00067400932312
1;273;2.0577003955841064
1;274;2.085538625717163
1;275;2.021301031112671
1;276;2.0908193588256836
1;277;2.1084680557250977
1;278;2.0638039112091064
1;279;2.0609967708587646
1;280;2.1223607063293457
1;281;2.1380648612976074
1;282;2.0823938846588135
1;283;2.1351919174194336
1;284;2.0447134971618652
1;285;2.0638608932495117
1;286;2.0376131534576416
1;287;2.036054849624634
1;288;2.104503631591797
1;289;2.185462236404419
1;290;2.0901899337768555
1;291;2.0281331539154053
1;292;2.073490858078003
1;293;2.0095512866973877
1;294;2.081691265106201
1;295;2.0607519149780273
1;296;2.04426646232605
1;297;2.0208046436309814
1;298;2.110689401626587
1;299;2.1139371395111084
1;300;2.1010239124298096
1;301;2.070111036300659
1;302;2.1058554649353027
1;303;2.0921268463134766
1;304;2.141098976135254
1;305;2.0351662635803223
1;306;2.0429844856262207
1;307;2.0564253330230713
1;308;2.0621471405029297
1;309;2.0767533779144287
1;310;2.1005680561065674
1;311;2.0997328758239746
1;312;2.0285205841064453
1;313;2.0058341026306152
1;314;2.038590431213379
1;315;2.077594041824341
1;316;2.1322238445281982
1;317;2.0469186305999756
1;318;2.040513277053833
1;319;1.9946098327636719
1;320;2.0199549198150635
1;321;2.063436508178711
1;322;2.042619228363037
1;323;2.1115260124206543
1;324;2.1337294578552246
1;325;2.0539119243621826
1;326;2.1292765140533447
1;327;2.0909528732299805
1;328;2.1056621074676514
1;329;2.066934108734131
1;330;2.138275146484375
1;331;2.022418737411499
1;332;2.0565261840820312
1;333;2.1024818420410156
1;334;2.0385711193084717
1;335;2.031501531600952
1;336;2.069580316543579
1;337;2.0568430423736572
1;338;2.0392613410949707
1;339;2.0538079738616943
1;340;2.0969185829162598
1;341;2.0007383823394775
1;342;2.0573391914367676
1;343;2.187627077102661
1;344;2.0077614784240723
1;345;2.020977258682251
1;346;2.01694917678833
1;347;2.0898125171661377
1;348;2.1297268867492676
1;349;2.117954969406128
1;350;1.9848588705062866
1;351;1.9931914806365967
1;352;2.1288113594055176
1;353;2.1261966228485107
1;354;2.065622329711914
1;355;2.072087526321411
1;356;2.10286021232605
1;357;2.1495163440704346
1;358;1.9947885274887085
1;359;2.1630754470825195
1;360;2.031569004058838
1;361;2.062385082244873
1;362;2.1613271236419678
1;363;2.054906129837036
1;364;2.1105380058288574
1;365;2.1014647483825684
1;366;2.03664493560791
1;367;2.0502872467041016
1;368;2.0293190479278564
1;369;2.001558303833008
1;370;2.0627660751342773
1;371;2.0355520248413086
1;372;2.0225508213043213
1;373;2.037015676498413
1;374;2.0450968742370605
1;375;2.1424453258514404
1;376;2.071542263031006
1;377;2.1147027015686035
1;378;2.0565154552459717
1;379;1.981885552406311
1;380;1.9949373006820679
1;381;2.006058931350708
1;382;2.018770456314087
1;383;2.039639711380005
1;384;2.0503151416778564
1;385;2.0956521034240723
1;386;2.0711426734924316
1;387;2.1305174827575684
1;388;2.125530242919922
1;389;2.019042730331421
1;390;2.0506510734558105
1;391;2.0105230808258057
1;392;2.060941457748413
1;393;2.035752534866333
1;394;2.123986005783081
1;395;2.0458405017852783
1;396;2.0314226150512695
1;397;2.054913282394409
1;398;2.049316167831421
1;399;2.1284985542297363
1;400;2.0181024074554443
1;401;2.0263407230377197
1;402;2.030447483062744
1;403;2.067370653152466
1;404;2.0329744815826416
1;405;1.9680542945861816
1;406;2.0186376571655273
1;407;2.0615761280059814
1;408;1.9874155521392822
1;409;2.062318801879883
1;410;2.0796918869018555
1;411;2.0120394229888916
1;412;2.0411622524261475
1;413;2.033548593521118
1;414;2.0357255935668945
1;415;2.0401830673217773
1;416;2.068904399871826
1;417;2.099296808242798
1;418;1.9972002506256104
1;419;2.1091952323913574
1;420;2.05490779876709
1;421;2.068171501159668
1;422;2.0359106063842773
1;423;2.04461407661438
1;424;2.061741590499878
1;425;2.0681698322296143
1;426;2.0383872985839844
1;427;2.0610287189483643
1;428;2.075906991958618
1;429;2.123793125152588
1;430;2.0518031120300293
1;431;2.0011327266693115
1;432;2.0377118587493896
1;433;2.038982629776001
1;434;2.0116641521453857
1;435;2.102224588394165
1;436;2.047550916671753
1;437;2.00736927986145
1;438;2.0524258613586426
1;439;2.0322041511535645
1;440;2.0802969932556152
1;441;1.984575629234314
1;442;2.069143056869507
1;443;2.058889865875244
1;444;2.0874454975128174
1;445;1.987486481666565
1;446;2.107603073120117
1;447;2.060497760772705
1;448;2.053041696548462
1;449;2.024517059326172
1;450;2.017561435699463
1;451;2.091986894607544
1;452;2.0617337226867676
1;453;2.016061782836914
1;454;2.1182637214660645
1;455;2.1132988929748535
1;456;2.0257151126861572
1;457;1.9944190979003906
1;458;2.112781286239624
1;459;1.9790998697280884
1;460;2.0697507858276367
1;461;2.1235198974609375
1;462;2.101006269454956
1;463;2.1208152770996094
1;464;2.010009765625
1;465;2.005671501159668
1;466;2.0289762020111084
1;467;1.9970866441726685
1;468;2.027284622192383
1;469;2.148508310317993
1;470;2.020991086959839
1;471;2.115208387374878
1;472;2.021275758743286
1;473;2.0190441608428955
1;474;2.0264053344726562
1;475;2.085747241973877
1;476;2.036871910095215
1;477;2.160571813583374
1;478;2.098073720932007
1;479;2.019075632095337
1;480;2.0077435970306396
1;481;2.0722618103027344
1;482;1.9688199758529663
1;483;2.0888214111328125
1;484;2.0257370471954346
1;485;2.0729527473449707
1;486;2.0618765354156494
1;487;2.0780081748962402
1;488;2.1717031002044678
1;489;1.9887393712997437
1;490;2.0481770038604736
1;491;2.0472311973571777
1;492;2.0136473178863525
1;493;2.081608772277832
1;494;2.041661500930786
1;495;2.07159686088562
1;496;2.0157382488250732
1;497;2.1141765117645264
1;498;2.15018892288208
1;499;2.086639642715454
1;500;2.103830337524414
1;501;2.067089557647705
1;502;2.057934045791626
1;503;2.0293197631835938
1;504;2.066232919692993
1;505;2.0715596675872803
1;506;1.9668489694595337
1;507;2.038752317428589
1;508;2.095764398574829
1;509;2.01231050491333
1;510;2.068009853363037
1;511;2.0760207176208496
1;512;2.073423147201538
1;513;2.026705265045166
1;514;2.0374019145965576
1;515;1.9674824476242065
1;516;1.9405028820037842
1;517;2.038513660430908
1;518;2.014352321624756
1;519;2.027067184448242
1;520;2.0907959938049316
1;521;2.0596301555633545
1;522;2.076138496398926
1;523;2.005380392074585
1;524;2.0020923614501953
1;525;2.0126986503601074
1;526;2.13200306892395
1;527;2.137146472930908
1;528;2.013638973236084
1;529;2.020280599594116
1;530;2.069348096847534
1;531;2.0019383430480957
1;532;2.0310208797454834
1;533;1.9801229238510132
1;534;2.0645031929016113
1;535;2.0416648387908936
1;536;2.042529582977295
1;537;1.9712715148925781
1;538;2.023787021636963
1;539;2.127666473388672
1;540;2.0489211082458496
1;541;2.103083848953247
1;542;2.091688394546509
1;543;2.0049359798431396
1;544;1.9926248788833618
1;545;1.979531168937683
1;546;2.020397663116455
1;547;2.0314974784851074
1;548;2.0209527015686035
1;549;2.014686346054077
1;550;2.016465663909912
1;551;2.1346120834350586
1;552;2.0635881423950195
1;553;2.076507806777954
1;554;2.0295441150665283
1;555;2.0689878463745117
1;556;2.0305182933807373
1;557;2.0210628509521484
1;558;2.148712158203125
1;559;2.0875935554504395
1;560;2.0254061222076416
1;561;1.9969626665115356
1;562;2.0271918773651123
1;563;1.9746986627578735
1;564;2.0349626541137695
1;565;2.025428533554077
1;566;2.0370826721191406
1;567;2.133618116378784
1;568;2.0448131561279297
1;569;2.0735459327697754
1;570;2.1320815086364746
1;571;1.9884055852890015
1;572;2.1005795001983643
1;573;2.0179460048675537
1;574;2.065239429473877
1;575;2.0683891773223877
1;576;2.07753586769104
1;577;2.0492188930511475
1;578;2.075777530670166
1;579;2.0191967487335205
1;580;1.9845094680786133
1;581;2.0568389892578125
1;582;2.046199083328247
1;583;2.1203486919403076
1;584;2.053898572921753
1;585;2.0644655227661133
1;586;2.0453200340270996
1;587;2.118878126144409
1;588;2.006817579269409
1;589;2.016840696334839
1;590;2.114675283432007
1;591;1.954756259918213
1;592;2.0392613410949707
1;593;1.9956008195877075
1;594;2.0574452877044678
1;595;1.9805853366851807
1;596;2.0974509716033936
1;597;2.045675039291382
1;598;2.042130708694458
1;599;2.0411157608032227
1;600;2.051344871520996
1;601;2.0818629264831543
1;602;2.038883686065674
1;603;1.981208086013794
1;604;2.020871877670288
1;605;2.022848129272461
1;606;2.1158835887908936
1;607;2.034748077392578
1;608;2.0001652240753174
1;609;2.0293209552764893
1;610;2.0992181301116943
1;611;2.0761001110076904
1;612;2.1002681255340576
1;613;1.9986391067504883
1;614;2.038383960723877
1;615;2.1103057861328125
1;616;2.0596816539764404
1;617;2.02620530128479
1;618;2.0156404972076416
1;619;1.9946677684783936
1;620;1.9790228605270386
1;621;2.0454423427581787
1;622;2.0317211151123047
1;623;2.058623790740967
1;624;2.0362257957458496
1;625;2.069990396499634
1;626;2.07596755027771
1;627;2.0546622276306152
1;628;1.9583290815353394
1;629;2.0739340782165527
1;630;2.0954692363739014
1;631;2.162559747695923
1;632;2.114250421524048
1;633;2.0292813777923584
1;634;2.0147275924682617
1;635;2.0664310455322266
1;636;1.9919219017028809
1;637;2.0097744464874268
1;638;2.0672171115875244
1;639;2.0470147132873535
1;640;1.9682281017303467
1;641;1.9715144634246826
1;642;1.9506258964538574
1;643;2.006840705871582
1;644;2.042806386947632
1;645;2.0215001106262207
1;646;2.045252799987793
1;647;2.112335681915283
1;648;2.0084002017974854
1;649;2.030747175216675
1;650;2.094752073287964
1;651;2.020683526992798
1;652;2.006626844406128
1;653;2.0697948932647705
1;654;2.078192949295044
1;655;2.065328598022461
1;656;2.054525136947632
1;657;2.0455563068389893
1;658;2.083836555480957
1;659;2.0261783599853516
1;660;2.0376508235931396
1;661;2.066387176513672
1;662;2.0979437828063965
1;663;1.9955339431762695
1;664;2.1038544178009033
1;665;2.0181877613067627
1;666;2.063253879547119
1;667;2.042083501815796
1;668;2.045088291168213
1;669;2.126319646835327
1;670;2.0187172889709473
1;671;1.98495614528656
1;672;2.0432722568511963
1;673;2.0255918502807617
1;674;1.995141863822937
1;675;1.999563455581665
1;676;2.0661919116973877
1;677;2.011737585067749
1;678;2.063173770904541
1;679;2.016568899154663
1;680;2.086833953857422
1;681;2.0107688903808594
1;682;1.9928416013717651
1;683;2.0916011333465576
1;684;1.9590216875076294
1;685;2.0939114093780518
1;686;2.057060480117798
1;687;2.02344012260437
1;688;2.0505919456481934
1;689;2.007214307785034
1;690;1.9872785806655884
1;691;1.998274564743042
1;692;2.0455162525177
1;693;2.0766007900238037
1;694;2.0778534412384033
1;695;2.0275135040283203
1;696;2.0636298656463623
1;697;2.072437286376953
1;698;2.0337705612182617
1;699;2.018080472946167
1;700;2.065478563308716
1;701;1.994758129119873
1;702;1.990902304649353
1;703;2.007803201675415
1;704;2.11902117729187
1;705;2.0430946350097656
1;706;2.042264699935913
1;707;2.1438205242156982
1;708;2.0655007362365723
1;709;1.9689186811447144
1;710;2.0125892162323
1;711;2.1208138465881348
1;712;2.0235612392425537
1;713;1.9908794164657593
1;714;1.9786828756332397
1;715;2.0842654705047607
1;716;1.9907822608947754
1;717;2.0892179012298584
1;718;2.0446646213531494
1;719;2.0514822006225586
1;720;2.112504243850708
1;721;2.097993850708008
1;722;2.0548017024993896
1;723;2.0271294116973877
1;724;2.0210578441619873
1;725;2.0254690647125244
1;726;2.01283597946167
1;727;2.0598227977752686
1;728;2.092803955078125
1;729;1.9849114418029785
1;730;1.9990718364715576
1;731;2.0218710899353027
1;732;2.0138909816741943
1;733;1.9933924674987793
1;734;2.0293097496032715
1;735;2.0882277488708496
1;736;2.077909469604492
1;737;2.0768625736236572
1;738;2.045283794403076
1;739;2.0274124145507812
1;740;2.0337071418762207
1;741;1.968962550163269
1;742;2.0262038707733154
1;743;1.9927716255187988
1;744;1.9915854930877686
1;745;2.0101988315582275
1;746;2.0362420082092285
1;747;2.067026376724243
1;748;1.9436368942260742
1;749;1.9755951166152954
1;750;2.1095285415649414
1;751;2.049751043319702
1;752;2.0255372524261475
1;753;2.0766658782958984
1;754;2.0412638187408447
1;755;2.030747890472412
1;756;2.0641977787017822
1;757;2.0852694511413574
1;758;2.0508501529693604
1;759;1.9946810007095337
1;760;1.9533709287643433
1;761;2.005345344543457
1;762;1.9580236673355103
1;763;2.0801615715026855
1;764;2.008500337600708
1;765;1.975911259651184
1;766;2.038844347000122
1;767;1.9887080192565918
1;768;2.011737108230591
1;769;2.0044660568237305
1;770;2.1180334091186523
1;771;1.9944894313812256
1;772;1.968624234199524
1;773;2.106067657470703
1;774;2.1124026775360107
1;775;2.120327949523926
1;776;1.9944543838500977
1;777;1.9773966073989868
1;778;1.9894611835479736
1;779;2.016176700592041
1;780;1.9879837036132812
1;781;1.9931169748306274
1;782;1.999287724494934
1;783;2.0473084449768066
1;784;2.091388702392578
1;785;2.0156006813049316
1;786;1.971225380897522
1;787;2.0555014610290527
1;788;2.0170254707336426
1;789;2.1315977573394775
1;790;2.071786642074585
1;791;2.0132429599761963
1;792;1.973664402961731
1;793;2.0008914470672607
1;794;1.954817533493042
1;795;2.0721139907836914
1;796;2.0062668323516846
1;797;1.958555817604065
1;798;2.1179039478302
1;799;1.9925326108932495
1;800;1.9913142919540405
1;801;2.1218912601470947
1;802;2.017951726913452
1;803;2.1367480754852295
1;804;1.9807809591293335
1;805;2.001810073852539
1;806;2.1649909019470215
1;807;2.067967176437378
1;808;1.9685051441192627
1;809;2.0548431873321533
1;810;2.044114351272583
1;811;2.074876546859741
1;812;2.078399896621704
1;813;2.074826955795288
1;814;2.083376169204712
1;815;2.08481764793396
1;816;2.0183842182159424
1;817;2.018552541732788
1;818;2.135939598083496
1;819;2.0009868144989014
1;820;2.050874948501587
1;821;2.0448029041290283
1;822;1.9630333185195923
1;823;2.0169026851654053
1;824;2.000530958175659
1;825;1.9980230331420898
1;826;2.0541505813598633
1;827;2.0155887603759766
1;828;2.0736641883850098
1;829;2.0618577003479004
1;830;2.018437147140503
1;831;1.9837161302566528
1;832;1.9447160959243774
1;833;1.9724148511886597
1;834;2.0285561084747314
1;835;2.053368091583252
1;836;2.014857292175293
1;837;2.087461471557617
1;838;2.016406774520874
1;839;1.9586265087127686
1;840;2.0105462074279785
1;841;1.9510492086410522
1;842;2.0530025959014893
1;843;2.07709002494812
1;844;2.0180437564849854
1;845;1.9841521978378296
1;846;2.018975257873535
1;847;2.073526382446289
1;848;2.0250096321105957
1;849;2.0731170177459717
1;850;2.049325704574585
1;851;2.0219461917877197
1;852;2.023714780807495
1;853;2.014261245727539
1;854;1.9418516159057617
1;855;2.058166742324829
1;856;1.996781587600708
1;857;1.9740455150604248
1;858;2.03356671333313
1;859;2.0384347438812256
1;860;2.0144906044006348
1;861;2.0182650089263916
1;862;1.9858273267745972
1;863;1.9589319229125977
1;864;1.9759536981582642
1;865;1.9958361387252808
1;866;2.128861904144287
1;867;2.0860090255737305
1;868;2.058560609817505
1;869;2.048762083053589
1;870;1.9695775508880615
1;871;2.0116002559661865
1;872;1.9298138618469238
1;873;2.02384090423584
1;874;1.999882698059082
2;0;2.0435776710510254
2;1;2.0681774616241455
2;2;1.9368442296981812
2;3;2.113344669342041
2;4;2.0772974491119385
2;5;1.9278239011764526
2;6;1.970731258392334
2;7;2.034480094909668
2;8;2.0410990715026855
2;9;2.023803234100342
2;10;1.9724105596542358
2;11;1.934427261352539
2;12;2.063512086868286
2;13;2.0227882862091064
2;14;1.9966093301773071
2;15;2.009640693664551
2;16;2.0058417320251465
2;17;1.977414608001709
2;18;2.0646679401397705
2;19;2.041797637939453
2;20;1.9372522830963135
2;21;2.0418920516967773
2;22;2.033797264099121
2;23;1.956230878829956
2;24;2.032952070236206
2;25;2.0331778526306152
2;26;1.9956895112991333
2;27;1.999176263809204
2;28;1.9837361574172974
2;29;2.0236892700195312
2;30;1.960619568824768
2;31;2.0106122493743896
2;32;1.9934755563735962
2;33;2.0589585304260254
2;34;1.9928456544876099
2;35;2.00936222076416
2;36;1.993903636932373
2;37;2.0322494506835938
2;38;1.978577733039856
2;39;2.0085225105285645
2;40;1.9864022731781006
2;41;2.044768810272217
2;42;1.9839060306549072
2;43;1.9603744745254517
2;44;1.9957807064056396
2;45;2.0136890411376953
2;46;1.9828087091445923
2;47;1.957877516746521
2;48;2.00225567817688
2;49;2.065335512161255
2;50;1.970411777496338
2;51;2.0137417316436768
2;52;1.9877814054489136
2;53;2.046450138092041
2;54;2.0877468585968018
2;55;1.9637874364852905
2;56;2.009972333908081
2;57;2.064465284347534
2;58;1.9155901670455933
2;59;1.9925422668457031
2;60;2.0853970050811768
2;61;2.046356439590454
2;62;1.9949949979782104
2;63;2.017279863357544
2;64;2.0346028804779053
2;65;1.968468189239502
2;66;2.061864137649536
2;67;2.0378048419952393
2;68;1.9710246324539185
2;69;1.996950387954712
2;70;2.027723789215088
2;71;2.0103602409362793
2;72;2.022080898284912
2;73;1.9179340600967407
2;74;1.9940874576568604
2;75;1.9284567832946777
2;76;2.1252493858337402
2;77;1.9608168601989746
2;78;2.045142889022827
2;79;1.9533287286758423
2;80;2.0825634002685547
2;81;1.9670618772506714
2;82;2.0579781532287598
2;83;2.0285282135009766
2;84;2.006777286529541
2;85;1.8951687812805176
2;86;1.9282281398773193
2;87;2.014904737472534
2;88;1.9999595880508423
2;89;2.0396668910980225
2;90;1.9954715967178345
2;91;1.9661996364593506
2;92;2.0732991695404053
2;93;2.056975841522217
2;94;2.020461320877075
2;95;1.9372897148132324
2;96;1.985944151878357
2;97;2.040409564971924
2;98;2.0688352584838867
2;99;1.9366405010223389
2;100;2.070584297180176
2;101;2.0007739067077637
2;102;1.9968315362930298
2;103;2.0345449447631836
2;104;1.9434864521026611
2;105;1.929344892501831
2;106;2.010188579559326
2;107;2.0838136672973633
2;108;2.1039068698883057
2;109;1.9881187677383423
2;110;1.973273515701294
2;111;2.040083885192871
2;112;1.9885703325271606
2;113;2.0369136333465576
2;114;1.9278442859649658
2;115;1.9741041660308838
2;116;1.987741470336914
2;117;1.9366146326065063
2;118;2.0214076042175293
2;119;1.994373083114624
2;120;2.0454351902008057
2;121;1.982326865196228
2;122;2.0239968299865723
2;123;2.021101474761963
2;124;1.9847638607025146
2;125;2.0670037269592285
2;126;2.0461349487304688
2;127;1.9850356578826904
2;128;1.9518200159072876
2;129;2.010667324066162
2;130;1.9501547813415527
2;131;2.0126051902770996
2;132;1.9699645042419434
2;133;1.982134461402893
2;134;2.032052516937256
2;135;2.0709800720214844
2;136;1.9488565921783447
2;137;2.0887298583984375
2;138;2.127390146255493
2;139;2.0280215740203857
2;140;2.0385351181030273
2;141;2.0396862030029297
2;142;1.994246244430542
2;143;2.0517373085021973
2;144;1.9668926000595093
2;145;1.9587538242340088
2;146;2.011737823486328
2;147;1.987473487854004
2;148;2.0425825119018555
2;149;2.0437815189361572
2;150;2.0481276512145996
2;151;1.9971963167190552
2;152;1.9883157014846802
2;153;1.9781408309936523
2;154;2.0204930305480957
2;155;1.9593329429626465
2;156;2.1367290019989014
2;157;1.9957901239395142
2;158;1.963382363319397
2;159;2.063445568084717
2;160;1.9819962978363037
2;161;2.0315005779266357
2;162;1.9634126424789429
2;163;2.0503480434417725
2;164;1.9516806602478027
2;165;1.9343498945236206
2;166;1.9719343185424805
2;167;2.0192718505859375
2;168;2.0360090732574463
2;169;1.9640212059020996
2;170;2.037259817123413
2;171;2.0627334117889404
2;172;1.9427342414855957
2;173;1.9163928031921387
2;174;2.005344867706299
2;175;2.0433669090270996
2;176;2.0650432109832764
2;177;1.9558840990066528
2;178;1.9748249053955078
2;179;2.040069818496704
2;180;2.0088443756103516
2;181;2.0162553787231445
2;182;1.9671847820281982
2;183;2.060342311859131
2;184;2.0584473609924316
2;185;2.041515827178955
2;186;1.9842298030853271
2;187;2.066702127456665
2;188;2.1156792640686035
2;189;2.019819974899292
2;190;1.9743105173110962
2;191;2.053924560546875
2;192;2.0415291786193848
2;193;2.0941574573516846
2;194;2.026583194732666
2;195;1.9515316486358643
2;196;2.000185489654541
2;197;2.0058066844940186
2;198;2.0005180835723877
2;199;2.0039291381835938
2;200;1.9852290153503418
2;201;2.0205326080322266
2;202;2.0553510189056396
2;203;2.0401995182037354
2;204;1.9888989925384521
2;205;2.031973123550415
2;206;2.0251426696777344
2;207;2.081967830657959
2;208;2.0148532390594482
2;209;1.9771087169647217
2;210;2.0539755821228027
2;211;1.9203871488571167
2;212;1.9963243007659912
2;213;2.052424430847168
2;214;2.0326387882232666
2;215;2.018256425857544
2;216;1.927181363105774
2;217;2.051072359085083
2;218;2.009364128112793
2;219;2.048325777053833
2;220;1.9962974786758423
2;221;1.9705666303634644
2;222;2.0694210529327393
2;223;2.0123980045318604
2;224;2.1469106674194336
2;225;1.9770430326461792
2;226;1.9955555200576782
2;227;1.9971787929534912
2;228;2.040395975112915
2;229;2.0463132858276367
2;230;2.064037561416626
2;231;2.0184109210968018
2;232;1.9733047485351562
2;233;2.088151693344116
2;234;2.017826795578003
2;235;1.9789652824401855
2;236;1.983259916305542
2;237;2.0895674228668213
2;238;1.9978665113449097
2;239;2.0239953994750977
2;240;1.9535099267959595
2;241;1.989884376525879
2;242;1.978879690170288
2;243;1.961411476135254
2;244;1.9413670301437378
2;245;2.020998954772949
2;246;2.022874355316162
2;247;1.9786813259124756
2;248;2.000415086746216
2;249;1.9843475818634033
2;250;2.009725570678711
2;251;2.0438694953918457
2;252;1.9717178344726562
2;253;2.008249044418335
2;254;1.986325740814209
2;255;2.0734853744506836
2;256;1.9755120277404785
2;257;2.0506250858306885
2;258;1.9147993326187134
2;259;2.1013667583465576
2;260;2.02842116355896
2;261;2.0024638175964355
2;262;1.940560221672058
2;263;2.015946626663208
2;264;2.105576753616333
2;265;2.0219836235046387
2;266;2.045635223388672
2;267;2.0071957111358643
2;268;2.022351026535034
2;269;1.995761752128601
2;270;1.9310593605041504
2;271;1.9901386499404907
2;272;1.9315813779830933
2;273;2.016515016555786
2;274;2.0478785037994385
2;275;1.9889283180236816
2;276;1.9718518257141113
2;277;1.921280026435852
2;278;1.9819005727767944
2;279;1.9572416543960571
2;280;2.0795421600341797
2;281;2.001030683517456
2;282;1.971341609954834
2;283;2.0998334884643555
2;284;2.045897960662842
2;285;2.0605533123016357
2;286;2.0908942222595215
2;287;2.0055081844329834
2;288;1.9336931705474854
2;289;1.9713261127471924
2;290;1.99725341796875
2;291;1.9278010129928589
2;292;2.0076589584350586
2;293;1.9376918077468872
2;294;2.008401393890381
2;295;2.050812244415283
2;296;2.043964385986328
2;297;2.0746688842773438
2;298;2.0675032138824463
2;299;1.9792094230651855
2;300;2.0335872173309326
2;301;2.0444328784942627
2;302;2.088230609893799
2;303;2.0028836727142334
2;304;2.0462355613708496
2;305;1.961968183517456
2;306;1.934783935546875
2;307;1.9882922172546387
2;308;1.9659274816513062
2;309;2.0183475017547607
2;310;1.8781086206436157
2;311;1.9191595315933228
2;312;1.9972927570343018
2;313;2.0109009742736816
2;314;1.930483341217041
2;315;1.931560754776001
2;316;1.9840153455734253
2;317;2.0151493549346924
2;318;1.9518764019012451
2;319;1.9722776412963867
2;320;2.0479276180267334
2;321;2.0667171478271484
2;322;1.9136476516723633
2;323;1.9778271913528442
2;324;1.9913731813430786
2;325;1.9760676622390747
2;326;1.982271671295166
2;327;1.8977910280227661
2;328;1.9961820840835571
2;329;1.938633680343628
2;330;1.9519495964050293
2;331;2.0808358192443848
2;332;2.0733532905578613
2;333;2.045430898666382
2;334;1.9896273612976074
2;335;1.960286021232605
2;336;1.9957317113876343
2;337;2.0350468158721924
2;338;1.9257104396820068
2;339;2.079420328140259
2;340;1.9607431888580322
2;341;2.019948720932007
2;342;1.991888165473938
2;343;1.9250202178955078
2;344;1.9886701107025146
2;345;1.9936208724975586
2;346;1.9575971364974976
2;347;1.925818681716919
2;348;1.9518001079559326
2;349;2.001617670059204
2;350;1.9904139041900635
2;351;2.000225305557251
2;352;1.922450065612793
2;353;2.042598247528076
2;354;1.9080826044082642
2;355;1.911071538925171
2;356;2.08504056930542
2;357;1.9808017015457153
2;358;1.9762115478515625
2;359;1.948362946510315
2;360;1.9809285402297974
2;361;1.9364262819290161
2;362;1.9935489892959595
2;363;1.9421905279159546
2;364;2.029970169067383
2;365;2.0063278675079346
2;366;1.957938551902771
2;367;1.9954273700714111
2;368;1.9746837615966797
2;369;1.9990077018737793
2;370;1.9383503198623657
2;371;1.9851043224334717
2;372;2.021599769592285
2;373;2.03498911857605
2;374;2.0918517112731934
2;375;1.9752177000045776
2;376;1.9209967851638794
2;377;1.981263279914856
2;378;2.045804500579834
2;379;2.0452754497528076
2;380;1.929601788520813
2;381;2.0075979232788086
2;382;1.9636644124984741
2;383;2.0388028621673584
2;384;2.036700963973999
2;385;1.961273193359375
2;386;1.9308589696884155
2;387;1.997083306312561
2;388;1.996578574180603
2;389;1.9460290670394897
2;390;2.0357534885406494
2;391;1.9751198291778564
2;392;2.017908811569214
2;393;1.9928699731826782
2;394;1.9781171083450317
2;395;1.9755548238754272
2;396;2.0062453746795654
2;397;2.00639271736145
2;398;1.963904857635498
2;399;2.0112385749816895
2;400;1.936202049255371
2;401;2.0106968879699707
2;402;1.9321082830429077
2;403;1.9536476135253906
2;404;1.88094162940979
2;405;1.9978290796279907
2;406;1.9166669845581055
2;407;2.0327882766723633
2;408;2.030313491821289
2;409;1.9731431007385254
2;410;2.0595853328704834
2;411;1.9665584564208984
2;412;1.9472460746765137
2;413;1.9630038738250732
2;414;2.026362657546997
2;415;1.9214513301849365
2;416;1.9746211767196655
2;417;1.9712040424346924
2;418;1.9192484617233276
2;419;1.8799935579299927
2;420;1.9353652000427246
2;421;1.9096325635910034
2;422;1.9665824174880981
2;423;1.9478387832641602
2;424;1.9434226751327515
2;425;1.9079372882843018
2;426;2.030294179916382
2;427;2.038831949234009
2;428;2.0149476528167725
2;429;1.9740777015686035
2;430;1.9033753871917725
2;431;2.0045576095581055
2;432;2.0023083686828613
2;433;1.95267653465271
2;434;2.0005223751068115
2;435;1.9392645359039307
2;436;2.00258207321167
2;437;1.9745153188705444
2;438;1.9304726123809814
2;439;1.971253514289856
2;440;2.068345308303833
2;441;2.004187822341919
2;442;2.022127389907837
2;443;1.974339485168457
2;444;2.034497022628784
2;445;2.114109516143799
2;446;2.086240530014038
2;447;1.945038080215454
2;448;1.9236968755722046
2;449;2.0039849281311035
2;450;1.897786259651184
2;451;1.981748104095459
2;452;2.0456483364105225
2;453;1.9771380424499512
2;454;1.889764666557312
2;455;1.9650377035140991
2;456;1.9921870231628418
2;457;2.0364582538604736
2;458;2.054013252258301
2;459;1.98886239528656
2;460;2.017369031906128
2;461;1.9762171506881714
2;462;1.9626953601837158
2;463;1.959047555923462
2;464;1.9319180250167847
2;465;1.9037491083145142
2;466;2.009629487991333
2;467;2.0283830165863037
2;468;1.9335224628448486
2;469;2.0507349967956543
2;470;1.998390793800354
2;471;1.9869370460510254
2;472;1.9822790622711182
2;473;1.9231951236724854
2;474;2.0319554805755615
2;475;1.9976383447647095
2;476;1.945096731185913
2;477;2.0066616535186768
2;478;1.9589790105819702
2;479;1.9739079475402832
2;480;2.062669277191162
2;481;1.9776979684829712
2;482;1.9550927877426147
2;483;1.894486665725708
2;484;2.0509843826293945
2;485;1.9611879587173462
2;486;1.95021653175354
2;487;1.978812336921692
2;488;1.922129511833191
2;489;2.0288331508636475
2;490;1.980814814567566
2;491;2.0063204765319824
2;492;1.9951385259628296
2;493;1.987632155418396
2;494;1.9366803169250488
2;495;1.9909602403640747
2;496;1.988268256187439
2;497;2.0104212760925293
2;498;1.9553321599960327
2;499;2.039747476577759
2;500;1.943365454673767
2;501;1.8843637704849243
2;502;1.9830231666564941
2;503;2.020660638809204
2;504;1.9680516719818115
2;505;1.910892367362976
2;506;2.007392644882202
2;507;2.042289972305298
2;508;1.8573205471038818
2;509;1.9504374265670776
2;510;2.0247018337249756
2;511;1.93474280834198
2;512;1.958430290222168
2;513;1.9993067979812622
2;514;2.046238422393799
2;515;1.9378052949905396
2;516;2.0105271339416504
2;517;1.9305840730667114
2;518;1.8771402835845947
2;519;1.9743092060089111
2;520;2.1077146530151367
2;521;2.0157363414764404
2;522;1.9504293203353882
2;523;1.9765125513076782
2;524;2.0465142726898193
2;525;1.9514821767807007
2;526;1.9941798448562622
2;527;1.98090660572052
2;528;1.9765267372131348
2;529;2.0033414363861084
2;530;1.9265906810760498
2;531;2.022305488586426
2;532;2.002509832382202
2;533;1.957881212234497
2;534;1.984454870223999
2;535;1.9636166095733643
2;536;1.9741134643554688
2;537;2.045135736465454
2;538;1.9660273790359497
2;539;2.0431108474731445
2;540;1.9122906923294067
2;541;1.9070420265197754
2;542;2.0198535919189453
2;543;1.9729739427566528
2;544;1.9902116060256958
2;545;1.9628454446792603
2;546;1.9511489868164062
2;547;1.970947504043579
2;548;1.8960579633712769
2;549;1.9074046611785889
2;550;2.0262653827667236
2;551;2.0215466022491455
2;552;2.0668718814849854
2;553;2.0582056045532227
2;554;1.9283037185668945
2;555;1.9747411012649536
2;556;1.9233161211013794
2;557;1.9541112184524536
2;558;1.96840238571167
2;559;1.9533226490020752
2;560;2.042829990386963
2;561;1.9099990129470825
2;562;1.9565104246139526
2;563;1.997938632965088
2;564;1.9209243059158325
2;565;1.9559211730957031
2;566;2.0227725505828857
2;567;1.9560989141464233
2;568;1.961215853691101
2;569;2.0179741382598877
2;570;1.9825494289398193
2;571;2.0439114570617676
2;572;2.081674337387085
2;573;2.027808904647827
2;574;1.9069294929504395
2;575;2.054614305496216
2;576;2.019322156906128
2;577;1.9511102437973022
2;578;1.9921141862869263
2;579;2.0346732139587402
2;580;2.005603551864624
2;581;2.0561447143554688
2;582;1.9207875728607178
2;583;1.9309749603271484
2;584;1.9892218112945557
2;585;1.9898366928100586
2;586;1.9887208938598633
2;587;2.035168409347534
2;588;1.956162691116333
2;589;2.03039288520813
2;590;1.950406789779663
2;591;2.012296199798584
2;592;1.9483044147491455
2;593;1.9896959066390991
2;594;1.9558128118515015
2;595;1.9745683670043945
2;596;1.9968622922897339
2;597;2.0587546825408936
2;598;1.988175392150879
2;599;2.083122491836548
2;600;1.9281102418899536
2;601;1.9713019132614136
2;602;2.0496747493743896
2;603;1.9801541566848755
2;604;2.014131546020508
2;605;1.9249863624572754
2;606;1.9680298566818237
2;607;1.9794063568115234
2;608;1.9172205924987793
2;609;1.9361765384674072
2;610;1.9737353324890137
2;611;1.9816734790802002
2;612;1.9042023420333862
2;613;2.011431932449341
2;614;1.9076462984085083
2;615;2.0269722938537598
2;616;1.9572793245315552
2;617;2.0125410556793213
2;618;2.0283031463623047
2;619;1.9451193809509277
2;620;1.9692267179489136
2;621;2.0214908123016357
2;622;2.084681749343872
2;623;1.9747209548950195
2;624;2.0717411041259766
2;625;1.9454644918441772
2;626;2.005634307861328
2;627;2.000779867172241
2;628;1.9498028755187988
2;629;1.921344518661499
2;630;1.9325532913208008
2;631;1.9069658517837524
2;632;1.8898921012878418
2;633;1.9887309074401855
2;634;1.8659098148345947
2;635;1.9524043798446655
2;636;2.045731782913208
2;637;2.0159473419189453
2;638;2.088547706604004
2;639;1.94046950340271
2;640;1.9574171304702759
2;641;1.9940879344940186
2;642;1.9363797903060913
2;643;2.035489320755005
2;644;2.0413389205932617
2;645;1.96013343334198
2;646;1.9211487770080566
2;647;1.8713587522506714
2;648;2.0215165615081787
2;649;1.9918255805969238
2;650;1.9438042640686035
2;651;1.9384288787841797
2;652;2.0205202102661133
2;653;1.954307198524475
2;654;2.017451763153076
2;655;1.9716018438339233
2;656;1.9512224197387695
2;657;1.989471435546875
2;658;2.0913925170898438
2;659;1.8795472383499146
2;660;2.0399818420410156
2;661;1.9528396129608154
2;662;1.9276448488235474
2;663;2.0004003047943115
2;664;1.9177820682525635
2;665;1.9458340406417847
2;666;1.9471286535263062
2;667;2.0504367351531982
2;668;2.00555419921875
2;669;2.0371222496032715
2;670;1.943090796470642
2;671;1.8886563777923584
2;672;1.8367836475372314
2;673;1.9075911045074463
2;674;1.9437259435653687
2;675;2.053302049636841
2;676;1.9623830318450928
2;677;1.970886468887329
2;678;1.8845635652542114
2;679;2.025148868560791
2;680;1.9877699613571167
2;681;1.9332233667373657
2;682;2.0075623989105225
2;683;2.067969799041748
2;684;2.042294502258301
2;685;1.9656389951705933
2;686;1.9714298248291016
2;687;2.0271873474121094
2;688;2.0206961631774902
2;689;1.9206149578094482
2;690;1.9688910245895386
2;691;1.9085379838943481
2;692;1.8896898031234741
2;693;1.8937958478927612
2;694;2.0437777042388916
2;695;1.9407551288604736
2;696;1.9381822347640991
2;697;2.084390640258789
2;698;2.012852907180786
2;699;1.9994087219238281
2;700;1.872459888458252
2;701;1.9512343406677246
2;702;2.011702537536621
2;703;2.1161446571350098
2;704;1.9635049104690552
2;705;1.9631038904190063
2;706;1.9524013996124268
2;707;1.9547230005264282
2;708;2.0474276542663574
2;709;2.016174793243408
2;710;2.058655023574829
2;711;1.9702357053756714
2;712;1.9196279048919678
2;713;1.9413741827011108
2;714;1.8958687782287598
2;715;1.981899380683899
2;716;2.0105326175689697
2;717;2.052175521850586
2;718;1.8932541608810425
2;719;1.9578567743301392
2;720;1.909700632095337
2;721;2.0096750259399414
2;722;1.947524905204773
2;723;1.9778821468353271
2;724;1.91754949092865
2;725;1.9414758682250977
2;726;2.026418685913086
2;727;1.9817185401916504
2;728;2.0110349655151367
2;729;1.9274641275405884
2;730;2.0123214721679688
2;731;1.9389232397079468
2;732;1.9170366525650024
2;733;1.971112847328186
2;734;1.972413420677185
2;735;1.981383204460144
2;736;1.8887463808059692
2;737;1.9475477933883667
2;738;1.941424012184143
2;739;2.0248868465423584
2;740;2.0139474868774414
2;741;1.9080171585083008
2;742;1.8937264680862427
2;743;1.9065096378326416
2;744;1.9523017406463623
2;745;1.9599889516830444
2;746;1.9969676733016968
2;747;2.0009255409240723
2;748;1.9852200746536255
2;749;1.943482518196106
2;750;1.9471697807312012
2;751;1.919323205947876
2;752;1.9313284158706665
2;753;1.9973201751708984
2;754;1.9600363969802856
2;755;2.0387861728668213
2;756;1.9680384397506714
2;757;1.887847900390625
2;758;1.9765844345092773
2;759;1.9553885459899902
2;760;2.0247161388397217
2;761;2.052144765853882
2;762;1.9558292627334595
2;763;1.955442190170288
2;764;1.977295160293579
2;765;1.985277771949768
2;766;1.8713971376419067
2;767;1.961585283279419
2;768;1.9559251070022583
2;769;2.007833480834961
2;770;2.0678439140319824
2;771;1.995395541191101
2;772;1.9726516008377075
2;773;1.9343239068984985
2;774;1.9395135641098022
2;775;2.001098871231079
2;776;1.9502454996109009
2;777;1.947374701499939
2;778;1.9334654808044434
2;779;1.9336401224136353
2;780;1.9191296100616455
2;781;1.9770684242248535
2;782;1.9376416206359863
2;783;1.9829214811325073
2;784;2.0116188526153564
2;785;1.9573034048080444
2;786;1.9584718942642212
2;787;1.9807766675949097
2;788;1.9538079500198364
2;789;1.9457240104675293
2;790;1.9305683374404907
2;791;1.9704517126083374
2;792;1.9357014894485474
2;793;2.1075685024261475
2;794;1.8981454372406006
2;795;1.9488955736160278
2;796;1.946069359779358
2;797;2.0433075428009033
2;798;1.9754427671432495
2;799;1.9564718008041382
2;800;1.941924810409546
2;801;2.1077022552490234
2;802;2.071728467941284
2;803;2.061117649078369
2;804;2.0094263553619385
2;805;1.971379280090332
2;806;1.994905710220337
2;807;2.001213550567627
2;808;1.9386537075042725
2;809;1.9879883527755737
2;810;2.0106639862060547
2;811;1.9432584047317505
2;812;1.9231139421463013
2;813;1.9838846921920776
2;814;2.0752835273742676
2;815;1.9732681512832642
2;816;2.117274045944214
2;817;1.9629451036453247
2;818;2.0519497394561768
2;819;2.0615170001983643
2;820;1.8902323246002197
2;821;1.9111825227737427
2;822;1.8416433334350586
2;823;1.876686692237854
2;824;2.0035970211029053
2;825;1.9532605409622192
2;826;1.9544215202331543
2;827;1.9652671813964844
2;828;1.9470864534378052
2;829;1.9457672834396362
2;830;1.9262938499450684
2;831;1.934199571609497
2;832;1.9821094274520874
2;833;1.9178540706634521
2;834;1.9868996143341064
2;835;2.042851448059082
2;836;1.9743428230285645
2;837;1.9581128358840942
2;838;2.0721628665924072
2;839;1.845299243927002
2;840;1.9420429468154907
2;841;1.9733037948608398
2;842;1.9315978288650513
2;843;1.9335670471191406
2;844;1.9045376777648926
2;845;1.8989485502243042
2;846;1.9004976749420166
2;847;1.9446028470993042
2;848;1.9252636432647705
2;849;1.919668197631836
2;850;1.862357497215271
2;851;2.0360069274902344
2;852;1.9063291549682617
2;853;1.93160879611969
2;854;1.937868356704712
2;855;1.9463903903961182
2;856;1.9312140941619873
2;857;2.019541025161743
2;858;1.9357985258102417
2;859;1.97703218460083
2;860;1.9258862733840942
2;861;1.978596806526184
2;862;1.9129587411880493
2;863;2.0003795623779297
2;864;2.0337860584259033
2;865;2.0011677742004395
2;866;1.9166477918624878
2;867;1.9104607105255127
2;868;1.9271891117095947
2;869;1.961299180984497
2;870;1.9812963008880615
2;871;1.9273844957351685
2;872;1.9368239641189575
2;873;1.969845175743103
2;874;1.956123948097229
3;0;1.8990446329116821
3;1;1.9207879304885864
3;2;1.951040267944336
3;3;1.9035065174102783
3;4;1.9074457883834839
3;5;1.9380488395690918
3;6;1.968785285949707
3;7;1.9893730878829956
3;8;1.919425129890442
3;9;1.890138864517212
3;10;2.0491347312927246
3;11;1.999496340751648
3;12;1.921860694885254
3;13;1.9034512042999268
3;14;1.9555832147598267
3;15;1.90276300907135
3;16;1.981766939163208
3;17;1.916811466217041
3;18;2.073197364807129
3;19;1.938187599182129
3;20;1.9683202505111694
3;21;1.9211941957473755
3;22;1.9672523736953735
3;23;1.9505901336669922
3;24;1.9092217683792114
3;25;1.9629483222961426
3;26;1.9022870063781738
3;27;1.9228756427764893
3;28;2.009737253189087
3;29;1.983813762664795
3;30;1.8722974061965942
3;31;1.9361379146575928
3;32;2.069870710372925
3;33;1.959887146949768
3;34;2.022709846496582
3;35;1.9410290718078613
3;36;1.9132919311523438
3;37;1.9618003368377686
3;38;1.9854795932769775
3;39;2.0024375915527344
3;40;1.9306232929229736
3;41;1.9021594524383545
3;42;2.0065183639526367
3;43;1.8982818126678467
3;44;1.935294270515442
3;45;1.9877017736434937
3;46;1.889976143836975
3;47;1.9245189428329468
3;48;2.071683406829834
3;49;1.9236633777618408
3;50;1.9670122861862183
3;51;1.9221885204315186
3;52;1.9337217807769775
3;53;1.929632306098938
3;54;1.9916354417800903
3;55;1.8980298042297363
3;56;1.9393540620803833
3;57;1.9928315877914429
3;58;1.975207805633545
3;59;1.935896396636963
3;60;1.9023821353912354
3;61;2.039289712905884
3;62;1.963698387145996
3;63;1.9177980422973633
3;64;1.8722026348114014
3;65;2.0061957836151123
3;66;1.9040735960006714
3;67;1.9966927766799927
3;68;2.085256814956665
3;69;1.9091544151306152
3;70;1.9474645853042603
3;71;2.059899091720581
3;72;2.0414388179779053
3;73;2.009040117263794
3;74;1.9390459060668945
3;75;1.902677059173584
3;76;1.9214283227920532
3;77;1.987048625946045
3;78;1.9649665355682373
3;79;1.960465669631958
3;80;1.9825165271759033
3;81;2.006983518600464
3;82;1.9625823497772217
3;83;1.9763586521148682
3;84;1.928899884223938
3;85;1.986899733543396
3;86;1.8855944871902466
3;87;1.9347913265228271
3;88;1.947982907295227
3;89;1.911997675895691
3;90;1.974583387374878
3;91;1.9942020177841187
3;92;1.9528764486312866
3;93;1.896959662437439
3;94;1.9851560592651367
3;95;2.069247007369995
3;96;2.0102779865264893
3;97;1.923984408378601
3;98;2.0148892402648926
3;99;2.004999876022339
3;100;1.986318826675415
3;101;1.984039068222046
3;102;1.9494354724884033
3;103;1.9566161632537842
3;104;1.9902147054672241
3;105;1.9814857244491577
3;106;1.9091426134109497
3;107;1.869096040725708
3;108;1.8943668603897095
3;109;1.9207419157028198
3;110;1.9454306364059448
3;111;1.8733996152877808
3;112;1.9684361219406128
3;113;1.9117543697357178
3;114;1.8861593008041382
3;115;1.8992359638214111
3;116;1.9300081729888916
3;117;2.0272340774536133
3;118;1.9622405767440796
3;119;1.9997620582580566
3;120;2.0526580810546875
3;121;1.9794739484786987
3;122;1.8404124975204468
3;123;2.026556968688965
3;124;1.9924132823944092
3;125;1.8998140096664429
3;126;1.934438943862915
3;127;1.984778881072998
3;128;1.9703370332717896
3;129;1.9430638551712036
3;130;1.9294838905334473
3;131;1.9427354335784912
3;132;2.0084424018859863
3;133;1.9406358003616333
3;134;2.0134150981903076
3;135;2.0286035537719727
3;136;1.9843740463256836
3;137;1.9634511470794678
3;138;1.8910316228866577
3;139;1.9561221599578857
3;140;1.921500563621521
3;141;1.9835869073867798
3;142;2.042772054672241
3;143;1.9378609657287598
3;144;1.962164044380188
3;145;2.0000717639923096
3;146;1.861112356185913
3;147;1.9456737041473389
3;148;2.015739679336548
3;149;1.8544732332229614
3;150;2.004683256149292
3;151;1.9857844114303589
3;152;2.0594441890716553
3;153;1.9215776920318604
3;154;1.9947048425674438
3;155;1.9821223020553589
3;156;1.9982634782791138
3;157;2.025022268295288
3;158;1.959826111793518
3;159;1.9459763765335083
3;160;1.964604377746582
3;161;1.9632055759429932
3;162;1.9427549839019775
3;163;1.9379109144210815
3;164;1.875746250152588
3;165;1.9139678478240967
3;166;2.0074217319488525
3;167;1.8868352174758911
3;168;1.9692041873931885
3;169;1.9611623287200928
3;170;1.9408000707626343
3;171;1.9868505001068115
3;172;1.8693348169326782
3;173;1.931003212928772
3;174;1.998666524887085
3;175;1.944129467010498
3;176;1.9289647340774536
3;177;1.980978012084961
3;178;1.9441142082214355
3;179;1.9194581508636475
3;180;1.9324443340301514
3;181;1.9029914140701294
3;182;1.9657111167907715
3;183;1.9172191619873047
3;184;1.9800770282745361
3;185;1.9360891580581665
3;186;1.9389675855636597
3;187;1.9444255828857422
3;188;2.0238168239593506
3;189;1.9884958267211914
3;190;1.9490004777908325
3;191;1.9380704164505005
3;192;1.9770516157150269
3;193;1.8991706371307373
3;194;1.903487205505371
3;195;1.8474425077438354
3;196;1.8800013065338135
3;197;1.919335961341858
3;198;1.905327320098877
3;199;1.9667738676071167
3;200;1.900418758392334
3;201;2.0339772701263428
3;202;1.9107574224472046
3;203;1.850487470626831
3;204;1.9627689123153687
3;205;1.9192761182785034
3;206;1.9531570672988892
3;207;2.0446906089782715
3;208;1.9619742631912231
3;209;2.0507500171661377
3;210;2.0266144275665283
3;211;1.999585747718811
3;212;1.9012531042099
3;213;2.0179290771484375
3;214;1.9158384799957275
3;215;1.9684829711914062
3;216;2.0229902267456055
3;217;1.8622621297836304
3;218;2.018315315246582
3;219;2.0161046981811523
3;220;1.9966877698898315
3;221;1.8948450088500977
3;222;1.9882770776748657
3;223;1.9654277563095093
3;224;1.9533953666687012
3;225;1.9032291173934937
3;226;1.9744175672531128
3;227;1.9122183322906494
3;228;1.955657958984375
3;229;1.9944217205047607
3;230;1.935741901397705
3;231;1.9997236728668213
3;232;1.8949083089828491
3;233;1.9060949087142944
3;234;1.8508944511413574
3;235;1.9031434059143066
3;236;1.9291510581970215
3;237;1.9470175504684448
3;238;1.9595552682876587
3;239;1.9057713747024536
3;240;2.0508766174316406
3;241;1.9833372831344604
3;242;1.93889319896698
3;243;1.9535551071166992
3;244;1.923352599143982
3;245;1.8449753522872925
3;246;1.9251437187194824
3;247;2.003969669342041
3;248;1.9242029190063477
3;249;1.9857951402664185
3;250;2.1083734035491943
3;251;2.0026321411132812
3;252;1.9440594911575317
3;253;1.9836958646774292
3;254;2.0823302268981934
3;255;2.009143114089966
3;256;1.9169330596923828
3;257;1.9147143363952637
3;258;1.9437984228134155
3;259;1.9479693174362183
3;260;1.9512131214141846
3;261;1.8918436765670776
3;262;1.9442992210388184
3;263;1.9585742950439453
3;264;1.9766557216644287
3;265;1.8895677328109741
3;266;1.8393577337265015
3;267;1.9557569026947021
3;268;1.9038028717041016
3;269;1.9752472639083862
3;270;1.9353981018066406
3;271;1.9853471517562866
3;272;1.9468492269515991
3;273;1.9560878276824951
3;274;1.8750052452087402
3;275;1.9116437435150146
3;276;1.8515865802764893
3;277;1.9325019121170044
3;278;1.866135835647583
3;279;1.9188411235809326
3;280;1.907528281211853
3;281;1.859902262687683
3;282;1.8923614025115967
3;283;1.8912153244018555
3;284;1.9682528972625732
3;285;1.8687926530838013
3;286;1.9843424558639526
3;287;1.8561378717422485
3;288;1.9881335496902466
3;289;1.9365156888961792
3;290;2.0300779342651367
3;291;1.8522846698760986
3;292;1.9403830766677856
3;293;1.8507779836654663
3;294;1.9398608207702637
3;295;1.9800424575805664
3;296;1.9772465229034424
3;297;1.9789730310440063
3;298;1.950352430343628
3;299;1.934828519821167
3;300;1.9675132036209106
3;301;1.8569315671920776
3;302;1.8677048683166504
3;303;2.0327847003936768
3;304;2.0174624919891357
3;305;2.0046350955963135
3;306;2.0225026607513428
3;307;1.953629732131958
3;308;1.9210056066513062
3;309;1.916168451309204
3;310;1.8831346035003662
3;311;2.0542891025543213
3;312;1.9700520038604736
3;313;1.8644648790359497
3;314;1.9038715362548828
3;315;1.9798526763916016
3;316;1.9625593423843384
3;317;1.8715888261795044
3;318;1.9596325159072876
3;319;2.039128065109253
3;320;1.8174793720245361
3;321;1.98952054977417
3;322;1.9198018312454224
3;323;1.9154069423675537
3;324;1.9336869716644287
3;325;1.9718197584152222
3;326;1.9432029724121094
3;327;1.951413869857788
3;328;1.974581003189087
3;329;2.038132429122925
3;330;1.9139211177825928
3;331;1.897273302078247
3;332;1.8432608842849731
3;333;1.964822769165039
3;334;2.008913516998291
3;335;1.9298462867736816
3;336;2.001321792602539
3;337;1.9098960161209106
3;338;1.9095760583877563
3;339;1.936584711074829
3;340;1.8741978406906128
3;341;2.0247840881347656
3;342;2.0608701705932617
3;343;1.935550570487976
3;344;2.048497438430786
3;345;1.9750868082046509
3;346;1.9175199270248413
3;347;1.9486455917358398
3;348;1.9219180345535278
3;349;1.9819462299346924
3;350;1.8865318298339844
3;351;1.8821512460708618
3;352;1.846383810043335
3;353;1.9252368211746216
3;354;1.8556114435195923
3;355;2.0014140605926514
3;356;1.9789584875106812
3;357;1.9372103214263916
3;358;1.9142215251922607
3;359;1.9283761978149414
3;360;2.0262653827667236
3;361;1.917012095451355
3;362;1.9465194940567017
3;363;2.01277494430542
3;364;1.993364930152893
3;365;1.8917301893234253
3;366;1.9227794408798218
3;367;1.9235247373580933
3;368;1.9758104085922241
3;369;1.9330137968063354
3;370;1.939322829246521
3;371;2.046304941177368
3;372;1.914554476737976
3;373;1.8976075649261475
3;374;1.8755125999450684
3;375;1.9547319412231445
3;376;1.9189426898956299
3;377;2.145890235900879
3;378;2.009157657623291
3;379;1.9439860582351685
3;380;2.040273666381836
3;381;1.8762091398239136
3;382;1.9464377164840698
3;383;1.980834722518921
3;384;1.9532946348190308
3;385;1.9203859567642212
3;386;1.9363675117492676
3;387;1.9519333839416504
3;388;1.8629018068313599
3;389;1.996377944946289
3;390;1.9453656673431396
3;391;1.967058539390564
3;392;1.9736093282699585
3;393;1.9601490497589111
3;394;1.931687831878662
3;395;1.914151668548584
3;396;1.9063687324523926
3;397;1.9114478826522827
3;398;1.915955901145935
3;399;1.8950574398040771
3;400;1.975644826889038
3;401;1.9202711582183838
3;402;1.9322742223739624
3;403;2.0118181705474854
3;404;2.001814126968384
3;405;1.8402106761932373
3;406;1.8769017457962036
3;407;1.9126639366149902
3;408;1.9889568090438843
3;409;1.963679313659668
3;410;1.942387342453003
3;411;1.932397484779358
3;412;1.8949018716812134
3;413;1.9244920015335083
3;414;1.868956446647644
3;415;1.9309461116790771
3;416;1.9648027420043945
3;417;1.9947717189788818
3;418;1.8797531127929688
3;419;1.9717600345611572
3;420;1.9509774446487427
3;421;1.9341068267822266
3;422;2.015085458755493
3;423;1.8867639303207397
3;424;1.9331377744674683
3;425;1.920780062675476
3;426;1.9235960245132446
3;427;1.9653308391571045
3;428;1.8638818264007568
3;429;1.953023910522461
3;430;1.815168857574463
3;431;1.9365594387054443
3;432;1.9194141626358032
3;433;1.9529457092285156
3;434;2.01900315284729
3;435;1.9551910161972046
3;436;1.9352093935012817
3;437;1.907691240310669
3;438;1.9052637815475464
3;439;1.9912745952606201
3;440;2.0058717727661133
3;441;2.004439353942871
3;442;1.8616399765014648
3;443;1.9177134037017822
3;444;1.8379720449447632
3;445;1.9514942169189453
3;446;1.9256129264831543
3;447;1.8797017335891724
3;448;1.891789197921753
3;449;2.021515369415283
3;450;1.9528712034225464
3;451;1.9879577159881592
3;452;1.9177407026290894
3;453;1.87119460105896
3;454;1.9670758247375488
3;455;1.8810391426086426
3;456;1.869564175605774
3;457;1.9443250894546509
3;458;1.9050970077514648
3;459;1.9506925344467163
3;460;1.8977874517440796
3;461;1.979799747467041
3;462;1.9294657707214355
3;463;1.904971718788147
3;464;1.8794242143630981
3;465;1.9550325870513916
3;466;1.890702486038208
3;467;1.970988154411316
3;468;1.886888027191162
3;469;1.9096587896347046
3;470;2.010131597518921
3;471;1.964673638343811
3;472;1.9758461713790894
3;473;1.937252402305603
3;474;2.024405002593994
3;475;1.9378551244735718
3;476;1.8663864135742188
3;477;1.890891432762146
3;478;1.9851009845733643
3;479;2.034194231033325
3;480;2.0226376056671143
3;481;2.0077147483825684
3;482;1.8265361785888672
3;483;1.872907280921936
3;484;1.9828001260757446
3;485;1.968849778175354
3;486;1.876419186592102
3;487;1.9375100135803223
3;488;1.9905134439468384
3;489;1.862919807434082
3;490;1.9222246408462524
3;491;1.914859652519226
3;492;1.8934351205825806
3;493;1.882447361946106
3;494;1.8694065809249878
3;495;1.9859528541564941
3;496;1.8913156986236572
3;497;1.899232268333435
3;498;1.921487808227539
3;499;1.9032031297683716
3;500;1.9558953046798706
3;501;2.044217586517334
3;502;1.9721615314483643
3;503;1.9250293970108032
3;504;1.9074897766113281
3;505;1.9075515270233154
3;506;1.9363256692886353
3;507;1.9562997817993164
3;508;1.8545925617218018
3;509;1.9572900533676147
3;510;2.0052855014801025
3;511;1.988580346107483
3;512;1.8660310506820679
3;513;1.8676090240478516
3;514;1.866914987564087
3;515;1.9534777402877808
3;516;1.9336436986923218
3;517;1.934745192527771
3;518;1.8903002738952637
3;519;1.9532358646392822
3;520;1.9724043607711792
3;521;1.980431079864502
3;522;1.8734068870544434
3;523;1.9912132024765015
3;524;1.9168379306793213
3;525;1.8572813272476196
3;526;1.950102686882019
3;527;1.8411396741867065
3;528;1.9093209505081177
3;529;1.934253215789795
3;530;2.0346755981445312
3;531;1.9683321714401245
3;532;1.9432653188705444
3;533;1.9446061849594116
3;534;2.022217273712158
3;535;2.0567615032196045
3;536;1.8803566694259644
3;537;1.9182016849517822
3;538;1.8298583030700684
3;539;1.9282981157302856
3;540;1.9110045433044434
3;541;1.940531849861145
3;542;1.9365378618240356
3;543;1.8942461013793945
3;544;2.0103695392608643
3;545;1.883132815361023
3;546;1.835552453994751
3;547;1.965880274772644
3;548;2.0069401264190674
3;549;1.9269977807998657
3;550;1.9867206811904907
3;551;1.967714786529541
3;552;1.877293348312378
3;553;1.9635252952575684
3;554;1.8956859111785889
3;555;1.9357272386550903
3;556;1.8852598667144775
3;557;1.9153242111206055
3;558;1.9281384944915771
3;559;1.8923919200897217
3;560;1.9358391761779785
3;561;1.8760664463043213
3;562;1.9076471328735352
3;563;1.8676260709762573
3;564;1.8670177459716797
3;565;1.8655086755752563
3;566;1.908756971359253
3;567;2.005030632019043
3;568;1.8806002140045166
3;569;1.9238227605819702
3;570;1.9091989994049072
3;571;1.8896074295043945
3;572;1.8609097003936768
3;573;1.9721109867095947
3;574;1.8516238927841187
3;575;1.8567546606063843
3;576;1.8344131708145142
3;577;2.0337164402008057
3;578;1.8934078216552734
3;579;1.8713808059692383
3;580;1.891103982925415
3;581;1.8462293148040771
3;582;1.8970004320144653
3;583;1.8642247915267944
3;584;1.8726526498794556
3;585;1.9069792032241821
3;586;1.9574137926101685
3;587;1.868316888809204
3;588;2.0337047576904297
3;589;1.8617801666259766
3;590;1.9360694885253906
3;591;2.029005289077759
3;592;1.931002140045166
3;593;1.8531087636947632
3;594;1.820784330368042
3;595;1.8819856643676758
3;596;1.9477747678756714
3;597;1.8520891666412354
3;598;1.8561538457870483
3;599;2.015540361404419
3;600;1.9549587965011597
3;601;1.8901314735412598
3;602;2.021085500717163
3;603;1.8300831317901611
3;604;1.9548420906066895
3;605;1.9698370695114136
3;606;1.8695396184921265
3;607;2.0540337562561035
3;608;1.8837567567825317
3;609;1.9814529418945312
3;610;1.919259786605835
3;611;1.9282540082931519
3;612;1.9773309230804443
3;613;1.9241857528686523
3;614;1.9661333560943604
3;615;1.8982641696929932
3;616;1.9323294162750244
3;617;1.869982123374939
3;618;1.863250732421875
3;619;2.068345308303833
3;620;1.9786969423294067
3;621;1.862941861152649
3;622;1.9118760824203491
3;623;1.9297816753387451
3;624;1.991851568222046
3;625;1.9630059003829956
3;626;1.9658801555633545
3;627;2.0150253772735596
3;628;1.8430249691009521
3;629;1.983868956565857
3;630;1.8921809196472168
3;631;1.9523249864578247
3;632;1.896688461303711
3;633;1.929566502571106
3;634;1.9380367994308472
3;635;1.8642038106918335
3;636;1.9660134315490723
3;637;1.8495779037475586
3;638;1.9222456216812134
3;639;1.9140517711639404
3;640;1.9042928218841553
3;641;1.8950390815734863
3;642;1.952547311782837
3;643;1.929526686668396
3;644;1.9631099700927734
3;645;1.9662026166915894
3;646;1.880704641342163
3;647;1.86734139919281
3;648;1.9399114847183228
3;649;1.8424386978149414
3;650;1.9026148319244385
3;651;2.0148417949676514
3;652;1.9990670680999756
3;653;1.9589505195617676
3;654;1.8632067441940308
3;655;1.9066071510314941
3;656;1.9855761528015137
3;657;1.9117783308029175
3;658;1.91582190990448
3;659;1.9486098289489746
3;660;1.9601917266845703
3;661;1.910736322402954
3;662;1.8819087743759155
3;663;1.9332475662231445
3;664;1.9245741367340088
3;665;1.9621247053146362
3;666;1.9605977535247803
3;667;1.9321019649505615
3;668;1.8928313255310059
3;669;1.8785994052886963
3;670;1.901005744934082
3;671;1.948354721069336
3;672;1.939503788948059
3;673;1.8586041927337646
3;674;1.905961275100708
3;675;1.9001712799072266
3;676;1.9826703071594238
3;677;2.00264310836792
3;678;1.849137544631958
3;679;1.9419623613357544
3;680;1.9682599306106567
3;681;1.9392549991607666
3;682;1.8857096433639526
3;683;1.9527496099472046
3;684;1.9054707288742065
3;685;1.9659667015075684
3;686;1.9478771686553955
3;687;1.8512709140777588
3;688;1.9129915237426758
3;689;1.914170265197754
3;690;1.8938339948654175
3;691;1.9482625722885132
3;692;1.9239784479141235
3;693;1.9014571905136108
3;694;1.9867651462554932
3;695;1.8859829902648926
3;696;1.9747077226638794
3;697;1.9305166006088257
3;698;1.9044653177261353
3;699;1.9687353372573853
3;700;1.9446028470993042
3;701;1.8986725807189941
3;702;1.925307035446167
3;703;1.925469160079956
3;704;1.9026532173156738
3;705;1.9794760942459106
3;706;1.9237213134765625
3;707;1.9210712909698486
3;708;1.9265484809875488
3;709;1.9435811042785645
3;710;1.987396240234375
3;711;1.8397760391235352
3;712;1.9774249792099
3;713;1.8908348083496094
3;714;1.8872251510620117
3;715;2.028202533721924
3;716;1.8715542554855347
3;717;1.9874666929244995
3;718;1.8588330745697021
3;719;1.9468913078308105
3;720;1.8984558582305908
3;721;1.921930193901062
3;722;1.9373762607574463
3;723;2.034442663192749
3;724;1.893127202987671
3;725;1.9124096632003784
3;726;1.9197065830230713
3;727;1.8166884183883667
3;728;1.9215582609176636
3;729;1.9477565288543701
3;730;1.9275641441345215
3;731;1.970785140991211
3;732;1.9355539083480835
3;733;1.914448618888855
3;734;1.9805997610092163
3;735;2.005716323852539
3;736;1.8768911361694336
3;737;1.8533943891525269
3;738;1.9693577289581299
3;739;1.9407776594161987
3;740;1.9442901611328125
3;741;2.055661201477051
3;742;1.9162286520004272
3;743;1.9572832584381104
3;744;1.8826028108596802
3;745;1.8770239353179932
3;746;1.8650676012039185
3;747;1.9818484783172607
3;748;2.005340337753296
3;749;1.8376494646072388
3;750;1.9158390760421753
3;751;1.8578627109527588
3;752;1.9174972772598267
3;753;1.895789623260498
3;754;1.9230833053588867
3;755;1.8608516454696655
3;756;2.025512933731079
3;757;1.9395264387130737
3;758;1.9029306173324585
3;759;1.9769577980041504
3;760;1.871024489402771
3;761;1.917529582977295
3;762;1.9497298002243042
3;763;1.8638826608657837
3;764;1.900163173675537
3;765;2.006324529647827
3;766;1.9997572898864746
3;767;1.9708988666534424
3;768;1.9258999824523926
3;769;1.908969759941101
3;770;1.9893224239349365
3;771;1.9573752880096436
3;772;1.911420464515686
3;773;1.9225431680679321
3;774;1.953285574913025
3;775;1.9514875411987305
3;776;1.848818063735962
3;777;1.8655972480773926
3;778;1.997979760169983
3;779;1.870847225189209
3;780;1.8873649835586548
3;781;1.8912922143936157
3;782;1.9635199308395386
3;783;1.9293012619018555
3;784;1.8296847343444824
3;785;1.8530986309051514
3;786;1.8732093572616577
3;787;1.9467144012451172
3;788;1.8477909564971924
3;789;1.9259294271469116
3;790;1.878926396369934
3;791;1.903222918510437
3;792;1.8387110233306885
3;793;1.9006938934326172
3;794;2.008448839187622
3;795;1.9183197021484375
3;796;1.941584587097168
3;797;1.8615225553512573
3;798;1.9488540887832642
3;799;1.9360171556472778
3;800;1.967040777206421
3;801;1.9862922430038452
3;802;1.9495428800582886
3;803;2.031165599822998
3;804;1.9031472206115723
3;805;1.8298673629760742
3;806;1.8487216234207153
3;807;1.9624425172805786
3;808;1.8852022886276245
3;809;1.8520010709762573
3;810;1.9038912057876587
3;811;1.8486806154251099
3;812;1.9277321100234985
3;813;1.8617184162139893
3;814;1.8770345449447632
3;815;1.89034903049469
3;816;1.8419307470321655
3;817;1.8548003435134888
3;818;1.8591539859771729
3;819;1.9630311727523804
3;820;1.8875062465667725
3;821;1.9018348455429077
3;822;1.854562520980835
3;823;1.9017040729522705
3;824;1.8593755960464478
3;825;1.9102157354354858
3;826;1.9992119073867798
3;827;1.8459501266479492
3;828;1.8785581588745117
3;829;1.8932844400405884
3;830;1.830464482307434
3;831;1.841490387916565
3;832;1.8710401058197021
3;833;1.8950839042663574
3;834;1.9246444702148438
3;835;1.8206398487091064
3;836;1.8720520734786987
3;837;1.8787198066711426
3;838;1.905074954032898
3;839;1.8633028268814087
3;840;1.9248625040054321
3;841;1.8728561401367188
3;842;1.9735438823699951
3;843;1.8989927768707275
3;844;1.9189338684082031
3;845;1.8495701551437378
3;846;1.9369570016860962
3;847;1.9369914531707764
3;848;1.920432448387146
3;849;1.8274385929107666
3;850;1.8751966953277588
3;851;1.8240143060684204
3;852;1.8810443878173828
3;853;1.8196922540664673
3;854;2.0159428119659424
3;855;1.8686182498931885
3;856;1.9969741106033325
3;857;1.9149781465530396
3;858;1.8440932035446167
3;859;1.9941173791885376
3;860;1.8627856969833374
3;861;1.9687800407409668
3;862;1.804511547088623
3;863;1.9498071670532227
3;864;1.913582682609558
3;865;1.9019601345062256
3;866;1.9381356239318848
3;867;1.9089314937591553
3;868;1.9640308618545532
3;869;1.9517590999603271
3;870;1.9780926704406738
3;871;1.8477144241333008
3;872;1.8912698030471802
3;873;1.8814668655395508
3;874;1.9405452013015747
4;0;1.9145258665084839
4;1;1.9672939777374268
4;2;1.911501407623291
4;3;1.8533374071121216
4;4;1.8497567176818848
4;5;1.89979088306427
4;6;1.9495998620986938
4;7;1.8673638105392456
4;8;1.9278780221939087
4;9;1.7673604488372803
4;10;1.8744699954986572
4;11;1.8551678657531738
4;12;1.94988214969635
4;13;1.8968541622161865
4;14;1.8597923517227173
4;15;1.8682888746261597
4;16;1.935918927192688
4;17;1.843327522277832
4;18;1.9438769817352295
4;19;1.8871006965637207
4;20;1.8419830799102783
4;21;1.8594051599502563
4;22;1.8850563764572144
4;23;1.9849680662155151
4;24;1.8715976476669312
4;25;1.8120354413986206
4;26;1.9581929445266724
4;27;1.9995907545089722
4;28;1.9540530443191528
4;29;1.8464558124542236
4;30;1.9692944288253784
4;31;1.8891693353652954
4;32;1.9843010902404785
4;33;1.8843936920166016
4;34;1.8950761556625366
4;35;1.94381844997406
4;36;1.90068781375885
4;37;1.8581398725509644
4;38;1.8409233093261719
4;39;1.868560552597046
4;40;1.8804559707641602
4;41;1.8851627111434937
4;42;1.9628750085830688
4;43;1.9463555812835693
4;44;1.8287047147750854
4;45;1.8592671155929565
4;46;1.858055591583252
4;47;1.8876925706863403
4;48;1.873001217842102
4;49;1.8941311836242676
4;50;1.8936114311218262
4;51;1.9555741548538208
4;52;1.9566329717636108
4;53;1.908955693244934
4;54;1.9134185314178467
4;55;1.876733660697937
4;56;1.8979777097702026
4;57;1.9018702507019043
4;58;1.8837897777557373
4;59;1.9449275732040405
4;60;2.0390377044677734
4;61;1.911512017250061
4;62;1.900468111038208
4;63;1.9452098608016968
4;64;1.8350400924682617
4;65;1.8916107416152954
4;66;1.8665374517440796
4;67;1.9599742889404297
4;68;1.9159092903137207
4;69;1.8379660844802856
4;70;1.847216010093689
4;71;1.897687554359436
4;72;1.878175973892212
4;73;1.891886830329895
4;74;1.8766974210739136
4;75;1.8457798957824707
4;76;2.002537727355957
4;77;1.8506929874420166
4;78;1.9444986581802368
4;79;1.8692562580108643
4;80;1.9627476930618286
4;81;1.854506254196167
4;82;1.96019446849823
4;83;1.9047703742980957
4;84;1.8977515697479248
4;85;1.915773630142212
4;86;1.8161793947219849
4;87;1.9774452447891235
4;88;1.9277676343917847
4;89;1.9020743370056152
4;90;1.9462569952011108
4;91;1.885345220565796
4;92;1.8115837574005127
4;93;1.895419716835022
4;94;1.9125069379806519
4;95;1.8572533130645752
4;96;1.8828885555267334
4;97;1.8482290506362915
4;98;1.9461225271224976
4;99;1.924999713897705
4;100;1.8624963760375977
4;101;1.9538438320159912
4;102;2.0010852813720703
4;103;1.8694618940353394
4;104;1.9486418962478638
4;105;1.987978219985962
4;106;1.92733895778656
4;107;1.8867918252944946
4;108;1.9110310077667236
4;109;1.8568625450134277
4;110;1.9686517715454102
4;111;1.8965967893600464
4;112;1.910485029220581
4;113;1.9524108171463013
4;114;2.017460823059082
4;115;2.018892526626587
4;116;1.8859506845474243
4;117;1.9811930656433105
4;118;1.9050720930099487
4;119;1.9286727905273438
4;120;1.9268354177474976
4;121;1.890740156173706
4;122;1.9504408836364746
4;123;1.9651347398757935
4;124;1.8445042371749878
4;125;1.9378756284713745
4;126;1.9272996187210083
4;127;1.850164771080017
4;128;1.8833460807800293
4;129;1.8704291582107544
4;130;1.9099012613296509
4;131;1.804273247718811
4;132;1.9635690450668335
4;133;1.9756776094436646
4;134;1.9144768714904785
4;135;1.8403127193450928
4;136;1.901426911354065
4;137;1.9032847881317139
4;138;1.8448237180709839
4;139;1.9468098878860474
4;140;1.9370373487472534
4;141;1.8869268894195557
4;142;1.8760020732879639
4;143;1.8907402753829956
4;144;1.9044513702392578
4;145;1.9894992113113403
4;146;1.9654103517532349
4;147;1.878197193145752
4;148;1.8731675148010254
4;149;1.8864461183547974
4;150;1.8954322338104248
4;151;1.9199888706207275
4;152;1.913124680519104
4;153;1.8531262874603271
4;154;1.8940842151641846
4;155;1.9208542108535767
4;156;1.8845558166503906
4;157;1.8831993341445923
4;158;1.8698310852050781
4;159;1.917223334312439
4;160;1.910188913345337
4;161;1.8685804605484009
4;162;1.9212870597839355
4;163;1.9021131992340088
4;164;1.8861494064331055
4;165;1.8638691902160645
4;166;1.870225191116333
4;167;1.9174518585205078
4;168;1.8572869300842285
4;169;1.890946388244629
4;170;1.8434377908706665
4;171;1.88779878616333
4;172;1.9607295989990234
4;173;1.846894383430481
4;174;1.8441925048828125
4;175;1.8766943216323853
4;176;1.9292693138122559
4;177;2.0115363597869873
4;178;1.8582640886306763
4;179;1.8707160949707031
4;180;1.8350540399551392
4;181;1.9667798280715942
4;182;1.8304699659347534
4;183;1.8163483142852783
4;184;1.9212192296981812
4;185;1.9146312475204468
4;186;1.8954063653945923
4;187;1.9381606578826904
4;188;1.8458455801010132
4;189;1.853083610534668
4;190;1.9720323085784912
4;191;1.856955885887146
4;192;1.837989330291748
4;193;1.843014121055603
4;194;1.9030423164367676
4;195;1.8553844690322876
4;196;1.8954672813415527
4;197;1.8921929597854614
4;198;1.8695749044418335
4;199;1.8559950590133667
4;200;1.9146757125854492
4;201;1.9557379484176636
4;202;1.921159029006958
4;203;1.8767707347869873
4;204;1.941442847251892
4;205;1.8785851001739502
4;206;1.867009162902832
4;207;1.9233444929122925
4;208;1.9482271671295166
4;209;2.048476457595825
4;210;1.9392244815826416
4;211;1.8366159200668335
4;212;1.8947267532348633
4;213;1.8410741090774536
4;214;1.8681930303573608
4;215;1.862183928489685
4;216;1.8920691013336182
4;217;1.918712854385376
4;218;1.8471992015838623
4;219;1.9017548561096191
4;220;1.9199366569519043
4;221;1.9674365520477295
4;222;1.933221697807312
4;223;1.8422600030899048
4;224;1.9505122900009155
4;225;1.8633463382720947
4;226;1.963695764541626
4;227;1.9469856023788452
4;228;1.9766212701797485
4;229;1.9351468086242676
4;230;1.8051936626434326
4;231;1.8653169870376587
4;232;1.9407490491867065
4;233;1.871033787727356
4;234;1.9075335264205933
4;235;1.9987289905548096
4;236;1.9972963333129883
4;237;1.9458262920379639
4;238;1.8046382665634155
4;239;1.8721141815185547
4;240;1.8735055923461914
4;241;1.93613600730896
4;242;1.9220335483551025
4;243;1.9893192052841187
4;244;1.895099401473999
4;245;1.9115303754806519
4;246;1.8918496370315552
4;247;1.9412908554077148
4;248;1.8513466119766235
4;249;1.9339640140533447
4;250;1.8973517417907715
4;251;1.869299292564392
4;252;1.8673032522201538
4;253;1.9043830633163452
4;254;1.8405627012252808
4;255;1.9328222274780273
4;256;1.9034041166305542
4;257;1.9123789072036743
4;258;2.0235581398010254
4;259;1.8775113821029663
4;260;1.8600572347640991
4;261;1.8996493816375732
4;262;1.8988398313522339
4;263;1.9540690183639526
4;264;1.940842628479004
4;265;1.9286631345748901
4;266;1.845360279083252
4;267;1.841280460357666
4;268;1.9035637378692627
4;269;1.9912652969360352
4;270;1.9500819444656372
4;271;1.8670011758804321
4;272;1.853711485862732
4;273;1.912669062614441
4;274;1.9865636825561523
4;275;1.8986390829086304
4;276;1.8744280338287354
4;277;1.8234633207321167
4;278;1.8354703187942505
4;279;1.914095163345337
4;280;1.82042396068573
4;281;1.8539912700653076
4;282;1.853661298751831
4;283;1.8414627313613892
4;284;1.9152377843856812
4;285;1.8354530334472656
4;286;1.836632490158081
4;287;1.953954815864563
4;288;1.8502095937728882
4;289;1.9411903619766235
4;290;1.8852618932724
4;291;1.8933197259902954
4;292;1.8938078880310059
4;293;1.8944083452224731
4;294;1.9177526235580444
4;295;1.9529311656951904
4;296;1.9458527565002441
4;297;1.8109900951385498
4;298;1.861240029335022
4;299;1.8962849378585815
4;300;1.8365718126296997
4;301;1.867329716682434
4;302;1.8548446893692017
4;303;1.8734500408172607
4;304;1.8187202215194702
4;305;1.790380835533142
4;306;1.8436534404754639
4;307;1.8870410919189453
4;308;1.8154058456420898
4;309;1.8962562084197998
4;310;1.8943275213241577
4;311;1.8655762672424316
4;312;1.948065161705017
4;313;1.920663833618164
4;314;1.8489611148834229
4;315;1.8594123125076294
4;316;1.9070550203323364
4;317;1.9216818809509277
4;318;1.8909082412719727
4;319;1.9226090908050537
4;320;1.99384343624115
4;321;1.8367692232131958
4;322;1.8967472314834595
4;323;1.893714427947998
4;324;1.8974212408065796
4;325;1.8539254665374756
4;326;1.874329686164856
4;327;1.8191380500793457
4;328;1.8444981575012207
4;329;1.9130007028579712
4;330;1.8275041580200195
4;331;1.9393563270568848
4;332;1.8588453531265259
4;333;1.8978171348571777
4;334;1.9291832447052002
4;335;1.9491113424301147
4;336;1.8902459144592285
4;337;1.9187438488006592
4;338;1.8055883646011353
4;339;1.932380199432373
4;340;1.8991681337356567
4;341;1.948337435722351
4;342;1.880719780921936
4;343;1.885245442390442
4;344;1.9469397068023682
4;345;1.8911641836166382
4;346;1.8091264963150024
4;347;1.8581825494766235
4;348;1.8360378742218018
4;349;1.8603883981704712
4;350;1.9631147384643555
4;351;1.8804587125778198
4;352;1.9529494047164917
4;353;1.8275009393692017
4;354;1.8387178182601929
4;355;1.9466407299041748
4;356;1.9417043924331665
4;357;1.8372844457626343
4;358;1.837221384048462
4;359;1.8230161666870117
4;360;1.9202295541763306
4;361;1.9354771375656128
4;362;1.8919047117233276
4;363;1.8436253070831299
4;364;1.9768065214157104
4;365;1.8789281845092773
4;366;1.8885653018951416
4;367;1.906415343284607
4;368;1.9930475950241089
4;369;1.8475431203842163
4;370;1.8845633268356323
4;371;1.8448718786239624
4;372;1.9110350608825684
4;373;1.8765138387680054
4;374;1.9564542770385742
4;375;1.893140435218811
4;376;1.923171877861023
4;377;1.9210182428359985
4;378;1.966658353805542
4;379;1.8285454511642456
4;380;1.8680886030197144
4;381;1.8063766956329346
4;382;1.9653904438018799
4;383;2.0021331310272217
4;384;1.8913217782974243
4;385;1.8834682703018188
4;386;1.8829350471496582
4;387;1.843637228012085
4;388;1.8977864980697632
4;389;1.7998725175857544
4;390;1.83113694190979
4;391;1.990932583808899
4;392;1.8364570140838623
4;393;1.959527850151062
4;394;1.8335875272750854
4;395;1.930017352104187
4;396;1.910568118095398
4;397;1.8502308130264282
4;398;1.8575522899627686
4;399;1.9131742715835571
4;400;1.8975595235824585
4;401;1.9081021547317505
4;402;1.8901962041854858
4;403;1.8949334621429443
4;404;1.9151904582977295
4;405;1.9447212219238281
4;406;1.8536603450775146
4;407;1.9215699434280396
4;408;1.8453625440597534
4;409;1.9119900465011597
4;410;1.884993076324463
4;411;1.9200472831726074
4;412;1.9072414636611938
4;413;1.9061697721481323
4;414;1.987161636352539
4;415;1.8518128395080566
4;416;1.8438071012496948
4;417;1.834709644317627
4;418;1.924583077430725
4;419;1.8734381198883057
4;420;1.8893511295318604
4;421;1.9245078563690186
4;422;1.9910948276519775
4;423;1.830333948135376
4;424;1.8816945552825928
4;425;1.9461086988449097
4;426;1.906937837600708
4;427;1.8120934963226318
4;428;1.8337043523788452
4;429;1.8949702978134155
4;430;1.837227702140808
4;431;1.918337106704712
4;432;1.962662935256958
4;433;1.854596734046936
4;434;1.8780635595321655
4;435;1.8978800773620605
4;436;1.8634635210037231
4;437;1.8534644842147827
4;438;1.9042651653289795
4;439;1.9894245862960815
4;440;1.8842591047286987
4;441;1.851065993309021
4;442;1.9957079887390137
4;443;2.019371747970581
4;444;1.8598953485488892
4;445;1.880825400352478
4;446;1.9201700687408447
4;447;1.8997995853424072
4;448;1.8308650255203247
4;449;1.8911713361740112
4;450;1.8508274555206299
4;451;1.8543658256530762
4;452;1.9121137857437134
4;453;1.8545448780059814
4;454;1.9524494409561157
4;455;1.9739035367965698
4;456;1.8915491104125977
4;457;1.9037028551101685
4;458;1.909207820892334
4;459;1.887731909751892
4;460;1.8693410158157349
4;461;1.8885167837142944
4;462;2.0210187435150146
4;463;1.8776260614395142
4;464;1.9555383920669556
4;465;1.834572434425354
4;466;1.998180627822876
4;467;1.9396179914474487
4;468;1.864780068397522
4;469;1.9190391302108765
4;470;1.8532679080963135
4;471;1.8566093444824219
4;472;1.8944175243377686
4;473;1.8423959016799927
4;474;1.8564141988754272
4;475;1.7958310842514038
4;476;1.966352105140686
4;477;1.9508353471755981
4;478;1.8004322052001953
4;479;1.9015758037567139
4;480;1.9182757139205933
4;481;1.9711519479751587
4;482;1.9291054010391235
4;483;1.889726161956787
4;484;1.845866322517395
4;485;1.9325170516967773
4;486;1.8618862628936768
4;487;1.8711214065551758
4;488;1.905777096748352
4;489;1.9295824766159058
4;490;1.9379420280456543
4;491;1.8208402395248413
4;492;1.8481488227844238
4;493;1.8732978105545044
4;494;1.9545305967330933
4;495;1.9187067747116089
4;496;1.8019531965255737
4;497;1.8442093133926392
4;498;1.7963868379592896
4;499;1.881363868713379
4;500;1.871493935585022
4;501;1.865190029144287
4;502;1.8887611627578735
4;503;1.8991450071334839
4;504;1.9449647665023804
4;505;1.8451602458953857
4;506;1.851559042930603
4;507;1.8536312580108643
4;508;1.929331660270691
4;509;1.8620802164077759
4;510;1.8824843168258667
4;511;1.9079742431640625
4;512;1.8459863662719727
4;513;1.8284246921539307
4;514;1.8868341445922852
4;515;1.8593804836273193
4;516;1.8534705638885498
4;517;1.9614665508270264
4;518;1.887864351272583
4;519;1.834485650062561
4;520;1.8652918338775635
4;521;1.8720649480819702
4;522;1.9077792167663574
4;523;1.8899720907211304
4;524;1.8912473917007446
4;525;1.8737059831619263
4;526;1.8596853017807007
4;527;1.8302043676376343
4;528;1.89837646484375
4;529;1.8037328720092773
4;530;1.8540011644363403
4;531;1.8546950817108154
4;532;1.9265880584716797
4;533;1.9555230140686035
4;534;1.832034707069397
4;535;1.8439857959747314
4;536;1.867578148841858
4;537;1.8633553981781006
4;538;1.9085055589675903
4;539;1.869736909866333
4;540;1.8718761205673218
4;541;1.8363314867019653
4;542;1.8419160842895508
4;543;1.8624886274337769
4;544;1.9643017053604126
4;545;1.9856250286102295
4;546;1.8688923120498657
4;547;1.9549720287322998
4;548;1.8328269720077515
4;549;1.7831785678863525
4;550;1.812561273574829
4;551;1.8105911016464233
4;552;1.8654699325561523
4;553;1.9592251777648926
4;554;1.860009789466858
4;555;1.7896126508712769
4;556;1.87785804271698
4;557;1.9136898517608643
4;558;1.8736745119094849
4;559;1.8852123022079468
4;560;1.9200289249420166
4;561;1.857334017753601
4;562;1.8818939924240112
4;563;1.8337150812149048
4;564;1.9023854732513428
4;565;1.9936020374298096
4;566;1.8659125566482544
4;567;1.8904896974563599
4;568;1.9341535568237305
4;569;1.8657381534576416
4;570;1.9965757131576538
4;571;1.8348010778427124
4;572;1.879614233970642
4;573;1.8217288255691528
4;574;1.8272132873535156
4;575;1.861117959022522
4;576;1.8514872789382935
4;577;1.8825479745864868
4;578;1.8477892875671387
4;579;1.8666417598724365
4;580;1.8340014219284058
4;581;1.902668833732605
4;582;1.839916706085205
4;583;1.8577122688293457
4;584;1.8770796060562134
4;585;1.8508535623550415
4;586;1.913097620010376
4;587;1.863143801689148
4;588;1.890623688697815
4;589;1.9268687963485718
4;590;1.959980845451355
4;591;1.8557437658309937
4;592;1.899439811706543
4;593;1.8873533010482788
4;594;1.8601289987564087
4;595;1.9229458570480347
4;596;1.9346587657928467
4;597;1.9308336973190308
4;598;1.9552193880081177
4;599;1.9205013513565063
4;600;1.9695979356765747
4;601;1.8345085382461548
4;602;1.8301169872283936
4;603;1.9396984577178955
4;604;1.850609540939331
4;605;1.8574870824813843
4;606;1.903314471244812
4;607;1.8950892686843872
4;608;1.9221900701522827
4;609;1.9652185440063477
4;610;1.9153101444244385
4;611;1.8435451984405518
4;612;1.816308617591858
4;613;1.8919265270233154
4;614;1.8695497512817383
4;615;1.872918725013733
4;616;1.821938157081604
4;617;1.8086720705032349
4;618;1.8734053373336792
4;619;1.9057643413543701
4;620;1.8888648748397827
4;621;1.9079161882400513
4;622;1.7781940698623657
4;623;1.9458763599395752
4;624;1.8609678745269775
4;625;1.8365980386734009
4;626;1.845628023147583
4;627;1.9648017883300781
4;628;1.7986626625061035
4;629;1.8823307752609253
4;630;1.9182751178741455
4;631;1.9708261489868164
4;632;1.863152027130127
4;633;1.8544241189956665
4;634;1.8786671161651611
4;635;1.8162238597869873
4;636;2.0014874935150146
4;637;1.9242219924926758
4;638;1.8016698360443115
4;639;1.907322883605957
4;640;1.8574024438858032
4;641;1.8470211029052734
4;642;1.8522398471832275
4;643;1.9234988689422607
4;644;1.8622149229049683
4;645;1.8929510116577148
4;646;1.8404995203018188
4;647;1.8536524772644043
4;648;1.810392141342163
4;649;1.9084655046463013
4;650;1.8685429096221924
4;651;1.9651821851730347
4;652;1.8784499168395996
4;653;1.8493053913116455
4;654;1.8772401809692383
4;655;1.826603889465332
4;656;1.992922067642212
4;657;1.8516725301742554
4;658;1.9439826011657715
4;659;1.8573729991912842
4;660;1.808245301246643
4;661;1.8430068492889404
4;662;1.904396891593933
4;663;1.823943853378296
4;664;1.9139759540557861
4;665;1.897790551185608
4;666;1.9860972166061401
4;667;1.9500401020050049
4;668;1.898148536682129
4;669;1.8591727018356323
4;670;1.8597028255462646
4;671;1.8581171035766602
4;672;1.9049700498580933
4;673;1.8414535522460938
4;674;1.9528003931045532
4;675;1.9282633066177368
4;676;1.8614599704742432
4;677;1.9232293367385864
4;678;1.8048795461654663
4;679;1.807921290397644
4;680;1.985945701599121
4;681;1.8288828134536743
4;682;1.87066650390625
4;683;1.8607041835784912
4;684;1.8012616634368896
4;685;1.8995888233184814
4;686;1.8278489112854004
4;687;1.8580762147903442
4;688;1.878584623336792
4;689;1.7720237970352173
4;690;1.8099679946899414
4;691;1.9733555316925049
4;692;1.860365629196167
4;693;1.8455761671066284
4;694;1.8077459335327148
4;695;1.9201444387435913
4;696;1.8930822610855103
4;697;1.8426800966262817
4;698;1.9255472421646118
4;699;1.8452967405319214
4;700;1.8659436702728271
4;701;1.9268690347671509
4;702;1.8266456127166748
4;703;1.8653610944747925
4;704;1.8613219261169434
4;705;1.8650110960006714
4;706;1.8593292236328125
4;707;1.9200770854949951
4;708;1.8626303672790527
4;709;1.8733367919921875
4;710;1.856188178062439
4;711;1.833904504776001
4;712;1.8733056783676147
4;713;1.9159233570098877
4;714;1.8957360982894897
4;715;1.8511624336242676
4;716;1.8397901058197021
4;717;1.826799750328064
4;718;1.829453945159912
4;719;1.8780168294906616
4;720;1.8357510566711426
4;721;1.9128249883651733
4;722;1.8701778650283813
4;723;1.9013023376464844
4;724;1.8001019954681396
4;725;1.9219263792037964
4;726;1.902836561203003
4;727;1.8980737924575806
4;728;1.9783605337142944
4;729;1.8965939283370972
4;730;1.849332332611084
4;731;1.8222403526306152
4;732;1.8960115909576416
4;733;1.815758228302002
4;734;1.7918092012405396
4;735;1.8352292776107788
4;736;1.946175456047058
4;737;1.876268982887268
4;738;1.951655387878418
4;739;1.9572608470916748
4;740;2.047654151916504
4;741;1.8980085849761963
4;742;1.8875668048858643
4;743;1.9236586093902588
4;744;1.8236563205718994
4;745;1.8528615236282349
4;746;1.8427734375
4;747;1.873848557472229
4;748;1.8766463994979858
4;749;1.8285460472106934
4;750;1.9602649211883545
4;751;1.9291951656341553
4;752;1.857285976409912
4;753;1.8871922492980957
4;754;1.8369125127792358
4;755;1.9086475372314453
4;756;1.9182528257369995
4;757;1.7937109470367432
4;758;2.0534703731536865
4;759;1.931566596031189
4;760;1.8989489078521729
4;761;1.855705738067627
4;762;1.8152329921722412
4;763;1.846472978591919
4;764;1.8526114225387573
4;765;1.9307876825332642
4;766;2.0065176486968994
4;767;1.8516356945037842
4;768;1.879111647605896
4;769;1.9377881288528442
4;770;1.7893891334533691
4;771;1.8218179941177368
4;772;1.8963149785995483
4;773;1.8909955024719238
4;774;1.8934327363967896
4;775;1.9761011600494385
4;776;1.8475596904754639
4;777;1.8619343042373657
4;778;1.8282065391540527
4;779;1.8687427043914795
4;780;1.806654930114746
4;781;1.8126418590545654
4;782;1.8832690715789795
4;783;1.8422664403915405
4;784;1.8595755100250244
4;785;1.905178427696228
4;786;1.7856591939926147
4;787;1.8680739402770996
4;788;1.8480473756790161
4;789;1.8698407411575317
4;790;1.8798531293869019
4;791;1.860563039779663
4;792;1.8422709703445435
4;793;1.8210206031799316
4;794;1.8705343008041382
4;795;1.835353136062622
4;796;1.9434070587158203
4;797;1.88567316532135
4;798;1.9069677591323853
4;799;1.811465859413147
4;800;1.8823779821395874
4;801;1.8585829734802246
4;802;1.8829900026321411
4;803;1.816908359527588
4;804;1.8769538402557373
4;805;2.019320249557495
4;806;1.8707942962646484
4;807;1.8781399726867676
4;808;2.0188770294189453
4;809;1.9678391218185425
4;810;1.9186197519302368
4;811;1.8075677156448364
4;812;1.885611891746521
4;813;1.8668932914733887
4;814;1.8210240602493286
4;815;1.851198673248291
4;816;1.8005073070526123
4;817;1.919830322265625
4;818;1.8265947103500366
4;819;1.8482253551483154
4;820;1.9069231748580933
4;821;1.873252272605896
4;822;1.8788882493972778
4;823;1.8509882688522339
4;824;1.8909469842910767
4;825;1.8767684698104858
4;826;1.8520280122756958
4;827;1.9126590490341187
4;828;1.834954023361206
4;829;1.895520567893982
4;830;1.8203741312026978
4;831;1.8288904428482056
4;832;1.8947761058807373
4;833;1.892977237701416
4;834;1.8136816024780273
4;835;1.8672412633895874
4;836;1.9230124950408936
4;837;1.9373888969421387
4;838;1.8234889507293701
4;839;1.8449795246124268
4;840;1.9712700843811035
4;841;1.9034764766693115
4;842;1.8727076053619385
4;843;1.8583018779754639
4;844;1.809456706047058
4;845;1.845207691192627
4;846;1.9346266984939575
4;847;1.810092568397522
4;848;1.8194724321365356
4;849;1.8827848434448242
4;850;1.987135410308838
4;851;1.7964056730270386
4;852;1.8413971662521362
4;853;1.8215572834014893
4;854;1.8679040670394897
4;855;1.9696294069290161
4;856;1.9163355827331543
4;857;1.916571855545044
4;858;1.9003976583480835
4;859;1.8624186515808105
4;860;1.838725209236145
4;861;1.8867535591125488
4;862;1.819139838218689
4;863;1.8494303226470947
4;864;1.8727864027023315
4;865;1.9220670461654663
4;866;1.8163503408432007
4;867;1.8702073097229004
4;868;1.7943789958953857
4;869;1.8641623258590698
4;870;1.8749289512634277
4;871;1.849331259727478
4;872;1.793973445892334
4;873;1.8722541332244873
4;874;1.857344388961792
5;0;1.8317701816558838
5;1;1.8784019947052002
5;2;1.8840928077697754
5;3;1.806442141532898
5;4;1.885921835899353
5;5;1.8057713508605957
5;6;1.800398826599121
5;7;1.8314155340194702
5;8;1.8704969882965088
5;9;1.912145972251892
5;10;1.8346902132034302
5;11;1.8718572854995728
5;12;1.9508178234100342
5;13;1.834274411201477
5;14;1.8801671266555786
5;15;1.8665339946746826
5;16;1.9199061393737793
5;17;1.9646133184432983
5;18;1.8919692039489746
5;19;1.9070825576782227
5;20;1.8288748264312744
5;21;1.9037548303604126
5;22;1.8496917486190796
5;23;1.8243104219436646
5;24;1.8065599203109741
5;25;1.8389127254486084
5;26;1.9068665504455566
5;27;1.8535743951797485
5;28;1.8922231197357178
5;29;1.8339898586273193
5;30;1.8219988346099854
5;31;1.950684905052185
5;32;1.9068666696548462
5;33;1.844299077987671
5;34;1.8786163330078125
5;35;1.9252912998199463
5;36;1.9006327390670776
5;37;1.889749526977539
5;38;1.828987956047058
5;39;1.8216227293014526
5;40;1.8202428817749023
5;41;1.81351637840271
5;42;1.8482450246810913
5;43;1.8622022867202759
5;44;1.8887403011322021
5;45;1.866905689239502
5;46;1.8666670322418213
5;47;1.864964485168457
5;48;1.875116229057312
5;49;1.797145128250122
5;50;1.9453446865081787
5;51;1.8582605123519897
5;52;1.8235877752304077
5;53;1.890594720840454
5;54;1.8989176750183105
5;55;1.8156023025512695
5;56;1.820772409439087
5;57;1.8051049709320068
5;58;1.7946898937225342
5;59;1.9270107746124268
5;60;1.8018462657928467
5;61;1.8774179220199585
5;62;1.9104533195495605
5;63;1.8592395782470703
5;64;1.9880011081695557
5;65;1.8406955003738403
5;66;1.8872607946395874
5;67;1.8798893690109253
5;68;1.810652732849121
5;69;1.8903166055679321
5;70;1.8213739395141602
5;71;1.8570235967636108
5;72;1.8313924074172974
5;73;1.8483346700668335
5;74;1.8419078588485718
5;75;1.8154324293136597
5;76;1.8801919221878052
5;77;1.7916455268859863
5;78;1.875862956047058
5;79;1.8591747283935547
5;80;1.7774579524993896
5;81;1.7884373664855957
5;82;1.8772882223129272
5;83;1.8569763898849487
5;84;1.8831613063812256
5;85;1.8234775066375732
5;86;1.7862975597381592
5;87;1.9076871871948242
5;88;1.8872277736663818
5;89;1.8796802759170532
5;90;1.8750181198120117
5;91;1.8512349128723145
5;92;1.7799943685531616
5;93;1.8740609884262085
5;94;1.897417426109314
5;95;1.8638619184494019
5;96;1.8902106285095215
5;97;1.8087482452392578
5;98;1.8514533042907715
5;99;1.859140157699585
5;100;1.9283138513565063
5;101;1.8355413675308228
5;102;1.8710626363754272
5;103;1.8027775287628174
5;104;1.8325852155685425
5;105;1.8642991781234741
5;106;1.8630870580673218
5;107;1.8392356634140015
5;108;1.8229024410247803
5;109;1.8671281337738037
5;110;1.929040551185608
5;111;1.7879385948181152
5;112;1.8747998476028442
5;113;1.9733341932296753
5;114;1.8069841861724854
5;115;1.8045076131820679
5;116;1.9350051879882812
5;117;1.8237473964691162
5;118;1.910038948059082
5;119;1.9288532733917236
5;120;1.9133942127227783
5;121;1.9313616752624512
5;122;1.907950758934021
5;123;1.8265317678451538
5;124;1.8447428941726685
5;125;1.876591682434082
5;126;1.9399038553237915
5;127;1.8511888980865479
5;128;1.8562010526657104
5;129;1.9013376235961914
5;130;1.9491727352142334
5;131;1.8068915605545044
5;132;1.807705283164978
5;133;1.9095866680145264
5;134;1.8594337701797485
5;135;1.8367648124694824
5;136;1.9446165561676025
5;137;1.8289850950241089
5;138;1.9182047843933105
5;139;1.8395471572875977
5;140;1.9252122640609741
5;141;1.9198253154754639
5;142;1.8616700172424316
5;143;1.9798102378845215
5;144;1.8158291578292847
5;145;1.8311634063720703
5;146;1.834028959274292
5;147;1.9300967454910278
5;148;1.848891019821167
5;149;1.8707988262176514
5;150;1.799149990081787
5;151;1.8738064765930176
5;152;1.891774296760559
5;153;1.9497506618499756
5;154;1.864758014678955
5;155;1.788509726524353
5;156;1.8206419944763184
5;157;1.8020330667495728
5;158;1.8517488241195679
5;159;1.814104437828064
5;160;1.8050979375839233
5;161;1.8813731670379639
5;162;1.9019546508789062
5;163;1.8584542274475098
5;164;1.8622990846633911
5;165;1.8500535488128662
5;166;1.957741141319275
5;167;1.9218534231185913
5;168;1.8657597303390503
5;169;1.9116538763046265
5;170;1.9088153839111328
5;171;1.909390926361084
5;172;1.8522348403930664
5;173;1.8418217897415161
5;174;1.8938349485397339
5;175;1.8532190322875977
5;176;1.8599809408187866
5;177;1.8587452173233032
5;178;1.868164300918579
5;179;1.817786693572998
5;180;1.81427800655365
5;181;1.9397337436676025
5;182;1.8388549089431763
5;183;1.908649206161499
5;184;1.8367704153060913
5;185;1.827749252319336
5;186;1.8115100860595703
5;187;1.9201030731201172
5;188;1.8706371784210205
5;189;1.8101979494094849
5;190;2.0030665397644043
5;191;1.848799705505371
5;192;1.9431657791137695
5;193;1.9021625518798828
5;194;1.811775803565979
5;195;1.8908429145812988
5;196;1.8727312088012695
5;197;1.834930658340454
5;198;1.808411955833435
5;199;1.8719706535339355
5;200;1.928202748298645
5;201;1.7722623348236084
5;202;1.777867078781128
5;203;1.800671935081482
5;204;1.7871577739715576
5;205;1.8521885871887207
5;206;1.7842365503311157
5;207;1.8813427686691284
5;208;1.8880720138549805
5;209;1.8457635641098022
5;210;1.9793975353240967
5;211;1.853360652923584
5;212;1.8281538486480713
5;213;1.8171652555465698
5;214;1.8118656873703003
5;215;1.798431634902954
5;216;1.8222159147262573
5;217;1.8621900081634521
5;218;1.831732153892517
5;219;1.877875804901123
5;220;1.905279278755188
5;221;1.9552110433578491
5;222;1.877913475036621
5;223;1.8854800462722778
5;224;1.8386086225509644
5;225;1.9264427423477173
5;226;1.8695935010910034
5;227;1.8591876029968262
5;228;1.7429277896881104
5;229;1.8652132749557495
5;230;1.835278034210205
5;231;1.8364673852920532
5;232;1.8005280494689941
5;233;1.91810941696167
5;234;1.7878329753875732
5;235;1.8284454345703125
5;236;1.849529504776001
5;237;1.8585444688796997
5;238;1.902969241142273
5;239;1.8432226181030273
5;240;1.880959391593933
5;241;1.8351376056671143
5;242;1.8317078351974487
5;243;1.8095778226852417
5;244;1.9136109352111816
5;245;1.8553917407989502
5;246;1.8201755285263062
5;247;1.8551459312438965
5;248;1.886312484741211
5;249;1.849237322807312
5;250;1.865780234336853
5;251;1.8189579248428345
5;252;1.8273316621780396
5;253;1.9081119298934937
5;254;1.8274917602539062
5;255;1.8451961278915405
5;256;1.7606019973754883
5;257;1.8512574434280396
5;258;1.8058465719223022
5;259;1.82737135887146
5;260;1.8554880619049072
5;261;1.8571817874908447
5;262;1.8390066623687744
5;263;1.9377326965332031
5;264;1.814119815826416
5;265;1.8381412029266357
5;266;1.7745732069015503
5;267;1.847559928894043
5;268;1.9205245971679688
5;269;1.8535714149475098
5;270;1.8211437463760376
5;271;1.8302667140960693
5;272;1.8348615169525146
5;273;1.8595083951950073
5;274;1.905724287033081
5;275;2.000469446182251
5;276;1.7845022678375244
5;277;1.8509845733642578
5;278;1.8556246757507324
5;279;1.9742622375488281
5;280;1.9775184392929077
5;281;1.833216905593872
5;282;1.8098193407058716
5;283;1.801405906677246
5;284;1.8154330253601074
5;285;1.87857985496521
5;286;1.856021761894226
5;287;1.917025089263916
5;288;1.8180599212646484
5;289;1.8300659656524658
5;290;1.9435642957687378
5;291;1.9012395143508911
5;292;1.8117616176605225
5;293;1.8333672285079956
5;294;1.8738830089569092
5;295;1.7945185899734497
5;296;1.8479580879211426
5;297;1.849549651145935
5;298;1.8295331001281738
5;299;1.8109266757965088
5;300;1.9191420078277588
5;301;1.8317501544952393
5;302;1.8330397605895996
5;303;1.8875333070755005
5;304;1.8154557943344116
5;305;1.8446415662765503
5;306;1.8417936563491821
5;307;1.862477421760559
5;308;1.868740439414978
5;309;1.7599745988845825
5;310;1.9734898805618286
5;311;1.905999779701233
5;312;1.8434779644012451
5;313;1.778668761253357
5;314;1.8112249374389648
5;315;1.7985655069351196
5;316;1.8527884483337402
5;317;1.8234655857086182
5;318;1.9175387620925903
5;319;1.776284098625183
5;320;1.8054991960525513
5;321;1.7954038381576538
5;322;1.8143585920333862
5;323;1.9020472764968872
5;324;1.8865488767623901
5;325;1.7977958917617798
5;326;1.8284366130828857
5;327;1.8822813034057617
5;328;1.8537750244140625
5;329;1.883943796157837
5;330;1.780395746231079
